time,Red,IR,X,Y,Z
0.00,82472,123447,0.028023,-0.034028,0.901733
0.05,105677,123795,0.030024,-0.03703,1.034841
0.10,105565,121904,0.031025,-0.034028,1.034841
0.15,104186,118390,0.032026,-0.031025,1.040846
0.20,103502,117783,0.030024,-0.038031,1.038844
0.25,103574,118159,0.026021,-0.039032,1.030838
0.30,103860,118756,0.032026,-0.035028,1.03384
0.35,104128,119150,0.027022,-0.035028,1.037843
0.40,104256,119293,0.031025,-0.036029,1.034841
0.45,104235,119102,0.034028,-0.040033,1.035842
0.50,104129,118930,0.035028,-0.038031,1.03384
0.55,104053,119034,0.035028,-0.040033,1.030838
0.60,104075,119359,0.029024,-0.038031,1.029837
0.65,104229,119866,0.030024,-0.040033,1.035842
0.70,104418,120238,0.030024,-0.03703,1.039845
0.75,104564,120627,0.034028,-0.03703,1.037843
0.80,104702,120991,0.033027,-0.039032,1.039845
0.85,104803,121232,0.029024,-0.038031,1.035842
0.90,104872,121455,0.034028,-0.03703,1.038844
0.95,104950,121641,0.032026,-0.034028,1.030838
1.00,105001,121808,0.033027,-0.03703,1.03384
1.05,105061,121966,0.031025,-0.035028,1.040846
1.10,105103,121555,0.032026,-0.03703,1.03384
1.15,103343,117094,0.032026,-0.038031,1.027835
1.20,103167,117006,0.031025,-0.038031,1.031838
1.25,103267,117351,0.034028,-0.042034,1.031838
1.30,103417,117696,0.030024,-0.03703,1.035842
1.35,103545,118100,0.031025,-0.039032,1.037843
1.40,103668,118117,0.030024,-0.03703,1.034841
1.45,103629,118126,0.033027,-0.034028,1.03384
1.50,103656,118322,0.030024,-0.035028,1.031838
1.55,103741,118568,0.027022,-0.033027,1.029837
1.60,103884,118950,0.029024,-0.035028,1.036842
1.65,103996,119391,0.031025,-0.035028,1.039845
1.70,104104,119619,0.028023,-0.036029,1.036842
1.75,104149,119894,0.027022,-0.038031,1.032839
1.80,104220,120102,0.028023,-0.040033,1.034841
1.85,104293,120350,0.027022,-0.040033,1.03384
1.90,104382,120564,0.031025,-0.034028,1.032839
1.95,104494,120848,0.033027,-0.035028,1.035842
2.00,104622,121149,0.032026,-0.036029,1.036842
2.05,104567,119532,0.026021,-0.03703,1.030838
2.10,103465,117236,0.027022,-0.03703,1.034841
2.15,103051,116777,0.031025,-0.036029,1.044849
2.20,103118,117108,0.032026,-0.040033,1.032839
2.25,103443,117916,0.02402,-0.036029,1.036842
2.30,103626,118301,0.030024,-0.03703,1.035842
2.35,103744,118380,0.032026,-0.039032,1.034841
2.40,103751,118260,0.030024,-0.03703,1.034841
2.45,103730,118309,0.030024,-0.03703,1.034841
2.50,103778,118533,0.027022,-0.036029,1.032839
2.55,103878,118956,0.027022,-0.039032,1.037843
2.60,104056,119500,0.032026,-0.03703,1.029837
2.65,104239,120065,0.029024,-0.030024,1.031838
2.70,104390,120387,0.027022,-0.033027,1.034841
2.75,104434,120586,0.029024,-0.038031,1.031838
2.80,104539,121267,0.032026,-0.038031,1.034841
2.85,104703,121477,0.030024,-0.038031,1.03384
2.90,104436,118925,0.034028,-0.036029,1.035842
2.95,103319,117115,0.036029,-0.039032,1.03384
3.00,103044,116943,0.031025,-0.043035,1.035842
3.05,103151,117372,0.035028,-0.03703,1.038844
3.10,103336,117780,0.033027,-0.035028,1.03384
3.15,103508,118154,0.033027,-0.041033,1.032839
3.20,103653,118307,0.031025,-0.039032,1.03384
3.25,103638,118223,0.032026,-0.032026,1.031838
3.30,103630,118234,0.034028,-0.036029,1.036842
3.35,103702,118395,0.032026,-0.036029,1.038844
3.40,103782,118608,0.034028,-0.036029,1.029837
3.45,103873,118865,0.029024,-0.041033,1.032839
3.50,103988,119207,0.026021,-0.036029,1.034841
3.55,104111,119558,0.030024,-0.034028,1.036842
3.60,104222,119856,0.030024,-0.03703,1.031838
3.65,104398,120373,0.028023,-0.038031,1.03384
3.70,104456,120521,0.032026,-0.033027,1.035842
3.75,104490,120629,0.032026,-0.036029,1.035842
3.80,104551,120884,0.031025,-0.035028,1.031838
3.85,104627,121096,0.032026,-0.036029,1.031838
3.90,104740,121381,0.031025,-0.038031,1.032839
3.95,104795,121641,0.032026,-0.03703,1.038844
4.00,104861,121866,0.034028,-0.036029,1.03384
4.05,104928,122027,0.030024,-0.035028,1.032839
4.10,104969,122192,0.029024,-0.036029,1.032839
4.15,105014,122335,0.034028,-0.036029,1.036842
4.20,105067,122463,0.030024,-0.035028,1.034841
4.25,105111,122644,0.035028,-0.038031,1.034841
4.30,105166,122682,0.034028,-0.03703,1.03384
4.35,105205,122849,0.028023,-0.035028,1.037843
4.40,105234,122746,0.031025,-0.040033,1.039845
4.45,104785,119712,0.035028,-0.03703,1.037843
4.50,103395,117410,0.030024,-0.03703,1.029837
4.55,103036,117202,0.030024,-0.034028,1.03384
4.60,103298,117906,0.033027,-0.036029,1.037843
4.65,103369,117998,0.029024,-0.038031,1.035842
4.70,103456,118245,0.028023,-0.038031,1.03384
4.75,103657,118896,0.032026,-0.038031,1.03384
4.80,103783,119248,0.035028,-0.03703,1.03384
4.85,103900,119433,0.034028,-0.03703,1.034841
4.90,103821,118784,0.030024,-0.03703,1.030838
4.95,103528,118350,0.029024,-0.041033,1.035842
5.00,103478,118615,0.026021,-0.038031,1.032839
5.05,103736,119586,0.027022,-0.038031,1.032839
5.10,104129,120406,0.029024,-0.036029,1.038844
5.15,104358,120719,0.030024,-0.035028,1.034841
5.20,104378,120669,0.032026,-0.033027,1.032839
5.25,104350,120642,0.034028,-0.033027,1.031838
5.30,104369,120755,0.031025,-0.038031,1.026834
5.35,104436,121022,0.028023,-0.039032,1.035842
5.40,104511,121317,0.034028,-0.038031,1.042847
5.45,104605,121617,0.033027,-0.03703,1.041847
5.50,104684,121852,0.028023,-0.03703,1.037843
5.55,104723,122034,0.028023,-0.036029,1.036842
5.60,104777,122172,0.031025,-0.035028,1.035842
5.65,104820,122267,0.032026,-0.032026,1.037843
5.70,104856,122420,0.031025,-0.038031,1.032839
5.75,104877,122523,0.031025,-0.032026,1.031838
5.80,104800,120792,0.030024,-0.03703,1.026834
5.85,103466,117500,0.032026,-0.036029,1.030838
5.90,102803,116867,0.034028,-0.036029,1.034841
5.95,102809,117182,0.035028,-0.038031,1.035842
6.00,102992,117598,0.034028,-0.041033,1.031838
6.05,103133,117940,0.031025,-0.034028,1.032839
6.10,103236,118163,0.033027,-0.03703,1.034841
6.15,103279,118130,0.030024,-0.035028,1.039845
6.20,103225,118025,0.032026,-0.038031,1.040846
6.25,103235,118172,0.03703,-0.035028,1.038844
6.30,103302,118432,0.035028,-0.03703,1.036842
6.35,103522,119039,0.028023,-0.033027,1.035842
6.40,103625,119070,0.030024,-0.032026,1.036842
6.45,103478,118402,0.032026,-0.031025,1.029837
6.50,103201,117987,0.031025,-0.033027,1.03384
6.55,103216,118436,0.028023,-0.036029,1.035842
6.60,103519,119383,0.029024,-0.036029,1.034841
6.65,103863,120079,0.031025,-0.034028,1.035842
6.70,104038,120216,0.027022,-0.03703,1.039845
6.75,104008,120078,0.030024,-0.038031,1.037843
6.80,103966,120080,0.030024,-0.038031,1.036842
6.85,104021,120280,0.033027,-0.035028,1.038844
6.90,104275,121037,0.029024,-0.036029,1.032839
6.95,104426,121297,0.036029,-0.036029,1.029837
7.00,104540,121522,0.029024,-0.035028,1.036842
7.05,104596,121723,0.028023,-0.034028,1.036842
7.10,104624,121516,0.035028,-0.038031,1.034841
7.15,103874,117945,0.038031,-0.040033,1.036842
7.20,102412,116245,0.02402,-0.034028,1.030838
7.25,102489,116519,0.028023,-0.035028,1.025833
7.30,102591,116704,0.038031,-0.038031,1.041847
7.35,102657,116929,0.038031,-0.038031,1.042847
7.40,102727,116993,0.028023,-0.035028,1.03384
7.45,102661,116831,0.02502,-0.034028,1.038844
7.50,102635,116921,0.030024,-0.035028,1.037843
7.55,102676,117071,0.03703,-0.036029,1.035842
7.60,102770,117399,0.033027,-0.036029,1.031838
7.65,102894,117668,0.031025,-0.040033,1.037843
7.70,103002,117737,0.029024,-0.035028,1.034841
7.75,102971,117521,0.035028,-0.039032,1.032839
7.80,103257,118466,0.028023,-0.035028,1.037843
7.85,103484,118932,0.029024,-0.036029,1.031838
7.90,103605,119123,0.031025,-0.036029,1.036842
7.95,103622,119072,0.027022,-0.032026,1.035842
8.00,103598,119072,0.02402,-0.035028,1.029837
8.05,103603,119149,0.034028,-0.038031,1.036842
8.10,103628,119305,0.031025,-0.038031,1.038844
8.15,103660,119452,0.028023,-0.038031,1.032839
8.20,103698,119548,0.027022,-0.039032,1.031838
8.25,103657,119575,0.032026,-0.038031,1.036842
8.30,103580,119604,0.033027,-0.03703,1.038844
8.35,103533,119573,0.034028,-0.033027,1.032839
8.40,103450,119533,0.029024,-0.034028,1.03384
8.45,103452,119576,0.029024,-0.03703,1.038844
8.50,103527,119740,0.029024,-0.036029,1.032839
8.55,102246,115286,0.034028,-0.03703,1.03384
8.60,101800,114528,0.030024,-0.034028,1.031838
8.65,101808,114626,0.027022,-0.035028,1.031838
8.70,101956,114929,0.028023,-0.036029,1.030838
8.75,102096,115152,0.034028,-0.036029,1.034841
8.80,102190,115281,0.034028,-0.036029,1.037843
8.85,102146,115179,0.029024,-0.03703,1.03384
8.90,102053,115126,0.026021,-0.039032,1.038844
8.95,102040,115237,0.029024,-0.034028,1.036842
9.00,102104,115370,0.034028,-0.035028,1.030838
9.05,102175,115595,0.033027,-0.03703,1.035842
9.10,102371,115829,0.028023,-0.031025,1.029837
9.15,102337,115520,0.035028,-0.036029,1.038844
9.20,102304,115476,0.036029,-0.032026,1.038844
9.25,102944,117041,0.031025,-0.036029,1.038844
9.30,103255,117555,0.036029,-0.036029,1.036842
9.35,103381,117687,0.029024,-0.033027,1.03384
9.40,103374,117732,0.030024,-0.036029,1.032839
9.45,103387,117849,0.030024,-0.03703,1.035842
9.50,103098,117983,0.02502,-0.038031,1.035842
9.55,103250,118749,0.030024,-0.040033,1.03384
9.60,103618,119659,0.031025,-0.040033,1.032839
9.65,101905,114546,0.033027,-0.03703,1.031838
9.70,101595,114337,0.028023,-0.035028,1.034841
9.75,101863,115384,0.031025,-0.03703,1.038844
9.80,102026,115751,0.033027,-0.03703,1.036842
9.85,102148,115938,0.026021,-0.040033,1.03384
9.90,102126,115878,0.027022,-0.039032,1.029837
9.95,102104,115828,0.032026,-0.03703,1.032839
10.00,102124,116019,0.031025,-0.03703,1.032839
10.05,102198,116249,0.032026,-0.039032,1.03384
10.10,102309,116577,0.026021,-0.035028,1.031838
10.15,102403,116879,0.035028,-0.034028,1.035842
10.20,102527,117276,0.032026,-0.038031,1.034841
10.25,102626,117541,0.030024,-0.035028,1.030838
10.30,102704,117648,0.027022,-0.036029,1.031838
10.35,102359,115254,0.035028,-0.035028,1.035842
10.40,101343,113755,0.029024,-0.039032,1.029837
10.45,101044,113346,0.033027,-0.041033,1.036842
10.50,101034,113465,0.028023,-0.036029,1.036842
10.55,101083,113654,0.032026,-0.036029,1.03384
10.60,101123,113952,0.035028,-0.036029,1.036842
10.65,101281,114355,0.033027,-0.038031,1.034841
10.70,101368,114523,0.032026,-0.039032,1.029837
10.75,101364,114525,0.034028,-0.039032,1.032839
10.80,101361,114631,0.029024,-0.03703,1.030838
10.85,101408,114894,0.032026,-0.03703,1.032839
10.90,101514,115239,0.034028,-0.033027,1.03384
10.95,101677,115679,0.029024,-0.038031,1.032839
11.00,101819,116102,0.02402,-0.038031,1.036842
11.05,101969,116528,0.030024,-0.03703,1.029837
11.10,102101,116885,0.036029,-0.038031,1.03384
11.15,102208,117066,0.034028,-0.035028,1.035842
11.20,102014,114828,0.029024,-0.035028,1.029837
11.25,100793,112675,0.033027,-0.032026,1.039845
11.30,100439,112299,0.033027,-0.039032,1.038844
11.35,100438,112419,0.033027,-0.041033,1.036842
11.40,100511,112682,0.02502,-0.03703,1.035842
11.45,100615,113098,0.026021,-0.031025,1.025833
11.50,100833,113730,0.036029,-0.040033,1.037843
11.55,101033,114044,0.036029,-0.03703,1.042847
11.60,101088,114138,0.029024,-0.031025,1.034841
11.65,101109,114242,0.029024,-0.036029,1.030838
11.70,101176,114443,0.032026,-0.039032,1.03384
11.75,101259,114776,0.035028,-0.03703,1.035842
11.80,101380,115127,0.028023,-0.038031,1.034841
11.85,101489,115372,0.026021,-0.033027,1.029837
11.90,101550,115640,0.033027,-0.034028,1.029837
11.95,101667,115945,0.038031,-0.033027,1.032839
12.00,101776,116156,0.028023,-0.03703,1.03384
12.05,101514,113872,0.031025,-0.038031,1.029837
12.10,100507,112353,0.03703,-0.038031,1.034841
12.15,100249,111941,0.035028,-0.03703,1.036842
12.20,100219,111994,0.033027,-0.033027,1.036842
12.25,100240,112118,0.031025,-0.031025,1.03384
12.30,100308,112427,0.032026,-0.035028,1.038844
12.35,100462,112866,0.033027,-0.036029,1.037843
12.40,100591,113025,0.032026,-0.034028,1.038844
12.45,100590,113012,0.031025,-0.033027,1.037843
12.50,100618,113129,0.029024,-0.03703,1.034841
12.55,100680,113329,0.033027,-0.036029,1.036842
12.60,100821,113770,0.035028,-0.039032,1.042847
12.65,100948,113970,0.028023,-0.03703,1.035842
12.70,100983,114088,0.030024,-0.03703,1.034841
12.75,101010,114275,0.036029,-0.03703,1.03384
12.80,101032,113982,0.031025,-0.032026,1.035842
12.85,100545,112028,0.034028,-0.036029,1.027835
12.90,99820,110364,0.033027,-0.034028,1.031838
12.95,99431,109762,0.030024,-0.034028,1.036842
13.00,99353,109615,0.028023,-0.038031,1.03384
13.05,99362,109834,0.034028,-0.034028,1.030838
13.10,99506,110402,0.034028,-0.035028,1.032839
13.15,99775,111172,0.035028,-0.038031,1.034841
13.20,99978,111504,0.028023,-0.040033,1.031838
13.25,100065,111717,0.029024,-0.035028,1.03384
13.30,100111,111946,0.031025,-0.034028,1.03384
13.35,100197,112184,0.035028,-0.035028,1.036842
13.40,100290,112509,0.033027,-0.036029,1.036842
13.45,100419,112892,0.033027,-0.034028,1.032839
13.50,100577,113334,0.031025,-0.036029,1.034841
13.55,100758,113696,0.030024,-0.03703,1.032839
13.60,100870,113983,0.031025,-0.035028,1.03384
13.65,100999,114370,0.033027,-0.030024,1.028836
13.70,101038,113407,0.02502,-0.039032,1.029837
13.75,100338,111571,0.021017,-0.040033,1.029837
13.80,99790,110498,0.029024,-0.035028,1.03384
13.85,99605,110350,0.03703,-0.033027,1.037843
13.90,99659,110565,0.034028,-0.03703,1.036842
13.95,99758,111004,0.032026,-0.040033,1.03384
14.00,99996,111752,0.033027,-0.033027,1.035842
14.05,100319,112463,0.032026,-0.035028,1.036842
14.10,100564,112770,0.030024,-0.035028,1.034841
14.15,100667,112826,0.023019,-0.038031,1.035842
14.20,100672,113025,0.030024,-0.036029,1.042847
14.25,100728,113312,0.03703,-0.036029,1.038844
14.30,100823,113728,0.03703,-0.040033,1.034841
14.35,100958,114003,0.032026,-0.040033,1.036842
14.40,101004,114138,0.028023,-0.032026,1.029837
14.45,101039,114343,0.032026,-0.032026,1.036842
14.50,101118,114594,0.036029,-0.034028,1.037843
14.55,101178,114254,0.036029,-0.042034,1.034841
14.60,100565,112174,0.034028,-0.046037,1.032839
14.65,99887,110935,0.027022,-0.043035,1.035842
14.70,99621,110606,0.029024,-0.039032,1.034841
14.75,99622,110809,0.046037,-0.032026,1.036842
14.80,99748,111273,0.038031,-0.041033,1.036842
14.85,100007,112123,0.027022,-0.044036,1.03384
14.90,100341,112773,0.02502,-0.038031,1.035842
14.95,100603,113253,0.020016,-0.028023,1.029837
15.00,101289,114471,0.048039,-0.042034,1.039845
15.05,101929,115492,0.022018,-0.033027,1.034841
15.10,102147,115989,0.029024,-0.027022,1.025833
15.15,102543,116817,0.03703,-0.046037,1.043848
15.20,102278,115176,0.029024,-0.030024,1.03384
15.25,101420,113186,0.026021,-0.041033,1.035842
15.30,100864,112352,0.040033,-0.040033,1.03384
15.35,100787,112495,0.032026,-0.038031,1.031838
15.40,100925,112941,0.019015,-0.036029,1.030838
15.45,101153,113542,0.02402,-0.034028,1.03384
15.50,101464,114099,0.044036,-0.036029,1.035842
15.55,101704,114337,0.043035,-0.045037,1.039845
15.60,101775,114307,0.031025,-0.036029,1.030838
15.65,101720,114210,0.02502,-0.027022,1.026834
15.70,101651,114192,0.031025,-0.032026,1.031838
15.75,101628,114299,0.027022,-0.040033,1.019829
15.80,101626,114412,0.032026,-0.040033,1.028836
15.85,101627,114443,0.029024,-0.035028,1.035842
15.90,101542,114352,0.026021,-0.034028,1.034841
15.95,101434,114277,0.029024,-0.036029,1.032839
16.00,101330,113858,0.034028,-0.038031,1.030838
16.05,100850,111980,0.034028,-0.040033,1.038844
16.10,100036,110085,0.03703,-0.038031,1.036842
16.15,99537,109442,0.033027,-0.041033,1.038844
16.20,99612,109917,0.034028,-0.042034,1.037843
16.25,99705,110250,0.034028,-0.040033,1.035842
16.30,99961,110780,0.021017,-0.035028,1.027835
16.35,100056,110960,0.031025,-0.03703,1.032839
16.40,100463,112045,0.032026,-0.038031,1.036842
16.45,100671,112600,0.031025,-0.035028,1.035842
16.50,101356,114081,0.038031,-0.039032,1.036842
16.55,101491,113959,0.033027,-0.038031,1.035842
16.60,100418,110762,0.031025,-0.036029,1.034841
16.65,100423,111505,0.032026,-0.039032,1.034841
16.70,100754,112334,0.034028,-0.032026,1.038844
16.75,100818,112420,0.031025,-0.035028,1.036842
16.80,100809,112404,0.033027,-0.039032,1.036842
16.85,100817,112506,0.034028,-0.038031,1.038844
16.90,100890,112836,0.03703,-0.03703,1.038844
16.95,100964,113120,0.031025,-0.036029,1.036842
17.00,101046,113529,0.034028,-0.038031,1.035842
17.05,101185,113887,0.033027,-0.035028,1.036842
17.10,101334,114291,0.032026,-0.039032,1.034841
17.15,101453,114486,0.032026,-0.03703,1.040846
17.20,101295,113339,0.031025,-0.036029,1.043848
17.25,100641,111586,0.034028,-0.032026,1.037843
17.30,100160,110892,0.032026,-0.033027,1.035842
17.35,100120,111180,0.034028,-0.03703,1.035842
17.40,100256,111635,0.035028,-0.035028,1.039845
17.45,100469,112258,0.033027,-0.034028,1.039845
17.50,100709,112829,0.027022,-0.034028,1.035842
17.55,100874,113041,0.030024,-0.039032,1.035842
17.60,100943,113225,0.031025,-0.038031,1.029837
17.65,100994,113487,0.034028,-0.038031,1.034841
17.70,101101,113804,0.035028,-0.034028,1.029837
17.75,101363,114454,0.033027,-0.038031,1.03384
17.80,101449,114775,0.031025,-0.039032,1.030838
17.85,101598,115162,0.027022,-0.038031,1.034841
17.90,101763,115485,0.030024,-0.036029,1.035842
17.95,101916,115535,0.032026,-0.035028,1.035842
18.00,101691,114124,0.032026,-0.039032,1.03384
18.05,101070,112474,0.030024,-0.040033,1.037843
18.10,101327,114127,0.029024,-0.036029,1.035842
18.15,101565,114613,0.031025,-0.036029,1.036842
18.20,101668,114861,0.027022,-0.03703,1.03384
18.25,101700,114874,0.027022,-0.03703,1.040846
18.30,101719,115081,0.032026,-0.03703,1.037843
18.35,101807,115367,0.033027,-0.034028,1.03384
18.40,101886,115691,0.034028,-0.036029,1.032839
18.45,101982,115941,0.032026,-0.038031,1.039845
18.50,101991,116047,0.031025,-0.036029,1.036842
18.55,101994,116196,0.035028,-0.035028,1.035842
18.60,102029,116446,0.033027,-0.036029,1.027835
18.65,102082,116466,0.031025,-0.038031,1.034841
18.70,101757,114665,0.036029,-0.03703,1.032839
18.75,101025,113115,0.034028,-0.034028,1.034841
18.80,100622,112556,0.032026,-0.036029,1.035842
18.85,100620,112942,0.030024,-0.041033,1.035842
18.90,100844,113532,0.031025,-0.035028,1.037843
18.95,101080,114220,0.036029,-0.038031,1.035842
19.00,101323,114618,0.032026,-0.036029,1.031838
19.05,101399,114700,0.033027,-0.03703,1.034841
19.10,101415,114765,0.034028,-0.035028,1.031838
19.15,101471,114962,0.035028,-0.03703,1.038844
19.20,101559,115337,0.035028,-0.036029,1.035842
19.25,101727,115723,0.033027,-0.034028,1.036842
19.30,102123,116799,0.030024,-0.031025,1.035842
19.35,102251,117130,0.032026,-0.036029,1.034841
19.40,102382,117491,0.035028,-0.03703,1.036842
19.45,102328,116123,0.033027,-0.03703,1.034841
19.50,101507,114261,0.034028,-0.039032,1.032839
19.55,101045,113544,0.030024,-0.03703,1.037843
19.60,100995,113733,0.031025,-0.03703,1.037843
19.65,101185,114311,0.031025,-0.038031,1.032839
19.70,101411,114970,0.031025,-0.036029,1.041847
19.75,101654,115529,0.033027,-0.036029,1.038844
19.80,101796,115670,0.033027,-0.03703,1.037843
19.85,101809,115624,0.031025,-0.040033,1.032839
19.90,101950,116236,0.033027,-0.040033,1.034841
19.95,102103,116595,0.032026,-0.036029,1.036842
20.00,102223,116968,0.029024,-0.03703,1.037843
20.05,102371,117344,0.031025,-0.038031,1.036842
20.10,102461,117609,0.033027,-0.036029,1.032839
20.15,102545,117820,0.030024,-0.038031,1.032839
20.20,102638,117955,0.031025,-0.03703,1.029837
20.25,102483,116386,0.032026,-0.03703,1.03384
20.30,101657,114568,0.035028,-0.03703,1.037843
20.35,101203,113959,0.028023,-0.034028,1.034841
20.40,101169,114148,0.030024,-0.03703,1.03384
20.45,101337,114647,0.027022,-0.036029,1.031838
20.50,101544,115242,0.034028,-0.039032,1.039845
20.55,101730,115676,0.035028,-0.03703,1.038844
20.60,101798,115664,0.032026,-0.035028,1.036842
20.65,101753,115623,0.033027,-0.038031,1.036842
20.70,101761,115742,0.033027,-0.031025,1.035842
20.75,101836,116002,0.033027,-0.036029,1.039845
20.80,101934,116366,0.029024,-0.039032,1.03384
20.85,102074,116733,0.031025,-0.03703,1.035842
20.90,102214,117076,0.034028,-0.03703,1.035842
20.95,102421,117703,0.033027,-0.031025,1.031838
21.00,102519,117941,0.029024,-0.031025,1.034841
21.05,102605,117905,0.038031,-0.034028,1.03384
21.10,102181,115812,0.032026,-0.039032,1.035842
21.15,101454,114422,0.035028,-0.040033,1.034841
21.20,101161,114167,0.030024,-0.03703,1.03384
21.25,101204,114541,0.032026,-0.03703,1.036842
21.30,101385,115148,0.032026,-0.034028,1.031838
21.35,101613,115685,0.033027,-0.034028,1.03384
21.40,101804,115989,0.034028,-0.03703,1.031838
21.45,101813,115844,0.028023,-0.03703,1.034841
21.50,101770,115863,0.030024,-0.036029,1.031838
21.55,101793,116032,0.032026,-0.035028,1.03384
21.60,101881,116358,0.03703,-0.039032,1.036842
21.65,102162,117072,0.033027,-0.035028,1.036842
21.70,102315,117465,0.033027,-0.032026,1.037843
21.75,102428,117748,0.030024,-0.039032,1.034841
21.80,102549,117987,0.031025,-0.038031,1.03384
21.85,102637,118223,0.039032,-0.041033,1.037843
21.90,102539,116805,0.033027,-0.040033,1.032839
21.95,101768,115190,0.033027,-0.038031,1.038844
22.00,101374,114656,0.030024,-0.034028,1.031838
22.05,101361,114965,0.030024,-0.034028,1.034841
22.10,101555,115551,0.033027,-0.036029,1.035842
22.15,101772,116154,0.036029,-0.036029,1.038844
22.20,101966,116409,0.035028,-0.038031,1.038844
22.25,101965,116231,0.033027,-0.035028,1.031838
22.30,101869,116102,0.031025,-0.036029,1.035842
22.35,101858,116247,0.030024,-0.039032,1.035842
22.40,101959,116657,0.031025,-0.035028,1.037843
22.45,102157,117200,0.028023,-0.038031,1.039845
22.50,102587,118270,0.031025,-0.036029,1.034841
22.55,102703,118641,0.031025,-0.038031,1.034841
22.60,102805,118906,0.035028,-0.035028,1.034841
22.65,102862,118913,0.035028,-0.035028,1.035842
22.70,102437,116585,0.033027,-0.03703,1.035842
22.75,101250,114925,0.031025,-0.039032,1.03384
22.80,101326,115406,0.030024,-0.040033,1.034841
22.85,101557,115979,0.033027,-0.039032,1.035842
22.90,101977,116893,0.030024,-0.039032,1.034841
22.95,102005,116832,0.031025,-0.039032,1.035842
23.00,101974,116769,0.031025,-0.035028,1.030838
23.05,101998,116900,0.034028,-0.034028,1.036842
23.10,102100,117156,0.036029,-0.034028,1.036842
23.15,102227,117504,0.033027,-0.03703,1.03384
23.20,102481,118222,0.032026,-0.038031,1.040846
23.25,102634,118502,0.033027,-0.035028,1.036842
23.30,102720,118808,0.033027,-0.03703,1.040846
23.35,102824,119051,0.031025,-0.031025,1.037843
23.40,102850,118379,0.030024,-0.034028,1.038844
23.45,102105,116005,0.032026,-0.042034,1.03384
23.50,101465,114944,0.033027,-0.035028,1.031838
23.55,101263,114876,0.034028,-0.03703,1.024833
23.60,101358,115303,0.034028,-0.033027,1.028836
23.65,101532,115760,0.034028,-0.036029,1.029837
23.70,101715,116235,0.031025,-0.038031,1.035842
23.75,101834,116326,0.032026,-0.036029,1.035842
23.80,101815,116227,0.031025,-0.03703,1.032839
23.85,101768,116229,0.034028,-0.036029,1.034841
23.90,101823,116488,0.031025,-0.036029,1.039845
23.95,101920,116779,0.032026,-0.034028,1.037843
24.00,102060,117094,0.029024,-0.042034,1.034841
24.05,102185,117456,0.030024,-0.03703,1.035842
24.10,102305,117761,0.032026,-0.034028,1.037843
24.15,102412,118080,0.032026,-0.038031,1.039845
24.20,102505,118317,0.034028,-0.036029,1.036842
24.25,102596,118568,0.035028,-0.036029,1.035842
24.30,102649,118218,0.032026,-0.036029,1.039845
24.35,102067,115939,0.033027,-0.038031,1.036842
24.40,101415,114918,0.035028,-0.038031,1.03384
24.45,101216,114822,0.030024,-0.038031,1.040846
24.50,101323,115269,0.034028,-0.036029,1.032839
24.55,101518,115797,0.033027,-0.03703,1.03384
24.60,101719,116303,0.035028,-0.03703,1.036842
24.65,101862,116484,0.028023,-0.038031,1.036842
24.70,101865,116403,0.026021,-0.038031,1.034841
24.75,101846,116425,0.031025,-0.034028,1.026834
24.80,101894,116597,0.032026,-0.036029,1.031838
24.85,101981,116939,0.031025,-0.034028,1.031838
24.90,102116,117284,0.035028,-0.033027,1.037843
24.95,102267,117631,0.034028,-0.036029,1.034841
25.00,102387,117931,0.029024,-0.036029,1.03384
25.05,102491,118109,0.029024,-0.036029,1.034841
25.10,102569,118398,0.033027,-0.031025,1.032839
25.15,102641,118486,0.032026,-0.035028,1.039845
25.20,102440,116772,0.034028,-0.038031,1.034841
25.25,101686,115305,0.036029,-0.036029,1.035842
25.30,101339,114940,0.031025,-0.036029,1.039845
25.35,101354,115209,0.031025,-0.036029,1.038844
25.40,101515,115747,0.033027,-0.036029,1.03384
25.45,101727,116300,0.034028,-0.039032,1.031838
25.50,101861,116533,0.033027,-0.03703,1.031838
25.55,101852,116354,0.030024,-0.03703,1.032839
25.60,101753,116269,0.031025,-0.03703,1.036842
25.65,101777,116424,0.029024,-0.036029,1.037843
25.70,101875,116727,0.028023,-0.035028,1.03384
25.75,102132,117352,0.033027,-0.03703,1.035842
25.80,102220,117610,0.035028,-0.038031,1.037843
25.85,102312,117940,0.036029,-0.036029,1.034841
25.90,102440,118301,0.034028,-0.03703,1.036842
25.95,102629,117528,0.026021,-0.038031,1.035842
26.00,101885,115530,0.031025,-0.039032,1.036842
26.05,101371,114676,0.035028,-0.03703,1.035842
26.10,101191,114667,0.040033,-0.036029,1.036842
26.15,101276,115058,0.036029,-0.034028,1.036842
26.20,101616,115872,0.023019,-0.036029,1.031838
26.25,101746,116058,0.033027,-0.033027,1.028836
26.30,101734,116103,0.03703,-0.040033,1.029837
26.35,101762,116411,0.035028,-0.03703,1.034841
26.40,101915,116781,0.02402,-0.038031,1.031838
26.45,102120,117188,0.020016,-0.03703,1.030838
26.50,102407,117697,0.040033,-0.03703,1.040846
26.55,102481,118003,0.046037,-0.035028,1.043848
26.60,102601,118260,0.031025,-0.036029,1.039845
26.65,102537,116906,0.022018,-0.031025,1.032839
26.70,101779,115229,0.022018,-0.030024,1.035842
26.75,101294,114752,0.048039,-0.042034,1.04585
26.80,101461,115130,0.029024,-0.040033,1.037843
26.85,101610,115525,0.016013,-0.033027,1.031838
26.90,101749,115849,0.023019,-0.028023,1.027835
26.95,101813,115985,0.039032,-0.03703,1.037843
27.00,101871,116144,0.032026,-0.03703,1.03384
27.05,101939,116374,0.021017,-0.032026,1.028836
27.10,102044,116673,0.033027,-0.036029,1.037843
27.15,102236,117240,0.040033,-0.039032,1.037843
27.20,102344,117611,0.02502,-0.036029,1.026834
27.25,102462,117946,0.02502,-0.035028,1.029837
27.30,102584,118183,0.030024,-0.035028,1.034841
27.35,101705,115098,0.033027,-0.038031,1.03384
27.40,101271,114487,0.029024,-0.03703,1.034841
27.45,101230,114698,0.030024,-0.031025,1.032839
27.50,101400,115210,0.029024,-0.033027,1.031838
27.55,101615,115702,0.036029,-0.040033,1.032839
27.60,101878,116096,0.029024,-0.03703,1.034841
27.65,101886,116147,0.029024,-0.036029,1.031838
27.70,101951,116382,0.033027,-0.038031,1.038844
27.75,102065,116647,0.036029,-0.034028,1.037843
27.80,102181,116957,0.033027,-0.03703,1.037843
27.85,102303,117305,0.032026,-0.03703,1.035842
27.90,102433,117614,0.029024,-0.036029,1.036842
27.95,102561,117961,0.030024,-0.035028,1.031838
28.00,102680,118125,0.035028,-0.03703,1.032839
28.05,102521,116587,0.033027,-0.043035,1.037843
28.10,101757,115037,0.032026,-0.035028,1.037843
28.15,101398,114569,0.030024,-0.034028,1.035842
28.20,101421,114847,0.031025,-0.034028,1.037843
28.25,101751,115780,0.032026,-0.038031,1.03384
28.30,101929,116118,0.032026,-0.03703,1.032839
28.35,101983,116121,0.032026,-0.034028,1.029837
28.40,101960,116122,0.031025,-0.042034,1.035842
28.45,102011,116340,0.026021,-0.036029,1.035842
28.50,102092,116634,0.029024,-0.038031,1.032839
28.55,102219,117050,0.026021,-0.040033,1.037843
28.60,102362,117407,0.02402,-0.03703,1.03384
28.65,102510,117749,0.030024,-0.036029,1.030838
28.70,102622,118082,0.030024,-0.035028,1.03384
28.75,102720,118298,0.033027,-0.036029,1.03384
28.80,101954,115442,0.030024,-0.036029,1.038844
28.85,101440,114562,0.032026,-0.036029,1.037843
28.90,101313,114585,0.031025,-0.03703,1.037843
28.95,101487,115220,0.029024,-0.036029,1.032839
29.00,101797,115865,0.030024,-0.038031,1.032839
29.05,101834,115933,0.034028,-0.036029,1.03384
29.10,101988,116506,0.033027,-0.036029,1.036842
29.15,102213,116906,0.031025,-0.039032,1.029837
29.20,102146,116574,0.026021,-0.031025,1.031838
29.25,102318,117650,0.031025,-0.035028,1.028836
29.30,102596,118240,0.032026,-0.035028,1.034841
29.35,102785,118538,0.029024,-0.036029,1.031838
29.40,102787,118619,0.035028,-0.036029,1.041847
29.45,102826,118827,0.033027,-0.039032,1.036842
29.50,102924,119134,0.030024,-0.034028,1.037843
29.55,103043,119427,0.027022,-0.036029,1.030838
29.60,103164,119785,0.032026,-0.038031,1.034841
29.65,102349,116288,0.031025,-0.036029,1.038844
29.70,101610,115193,0.033027,-0.039032,1.037843
29.75,101549,115721,0.034028,-0.035028,1.034841
29.80,101956,116662,0.032026,-0.039032,1.034841
29.85,102008,116744,0.032026,-0.036029,1.040846
29.90,102074,116950,0.031025,-0.038031,1.035842
29.95,102175,117293,0.031025,-0.03703,1.036842
30.00,102317,117723,0.033027,-0.039032,1.034841
30.05,102487,118154,0.035028,-0.036029,1.030838
30.10,102647,118551,0.032026,-0.036029,1.035842
30.15,102788,118908,0.028023,-0.03703,1.03384
30.20,102906,119202,0.035028,-0.040033,1.034841
30.25,103003,119440,0.034028,-0.034028,1.035842
30.30,103084,119688,0.036029,-0.035028,1.036842
30.35,103169,119924,0.034028,-0.036029,1.038844
30.40,103252,120153,0.03703,-0.036029,1.034841
30.45,103331,120371,0.032026,-0.03703,1.034841
30.50,103396,120519,0.032026,-0.039032,1.031838
30.55,103450,120665,0.030024,-0.033027,1.039845
30.60,103513,120832,0.027022,-0.03703,1.042847
30.65,103358,118756,0.034028,-0.03703,1.035842
30.70,102123,116179,0.031025,-0.038031,1.038844
30.75,101634,115703,0.032026,-0.035028,1.036842
30.80,101657,116093,0.032026,-0.038031,1.038844
30.85,101879,116733,0.034028,-0.038031,1.03384
30.90,102114,117326,0.031025,-0.03703,1.037843
30.95,102175,117265,0.031025,-0.040033,1.03384
31.00,102209,117483,0.030024,-0.03703,1.031838
31.05,102316,117845,0.032026,-0.036029,1.031838
31.10,102478,118283,0.029024,-0.036029,1.031838
31.15,102630,118633,0.029024,-0.036029,1.032839
31.20,102726,118604,0.036029,-0.039032,1.03384
31.25,102598,118042,0.034028,-0.040033,1.036842
31.30,102385,117826,0.032026,-0.03703,1.032839
31.35,102477,118428,0.033027,-0.038031,1.034841
31.40,102810,119335,0.032026,-0.040033,1.035842
31.45,103104,119906,0.034028,-0.032026,1.03384
31.50,103244,120084,0.038031,-0.035028,1.035842
31.55,103257,120098,0.032026,-0.039032,1.036842
31.60,103257,120159,0.031025,-0.03703,1.038844
31.65,103326,120368,0.03703,-0.033027,1.035842
31.70,103423,120628,0.035028,-0.035028,1.036842
31.75,103663,121162,0.034028,-0.035028,1.040846
31.80,103817,121606,0.035028,-0.032026,1.038844
31.85,104032,122137,0.02402,-0.036029,1.03384
31.90,104074,122099,0.038031,-0.036029,1.032839
31.95,103610,119163,0.038031,-0.041033,1.039845
32.00,102249,116881,0.032026,-0.040033,1.032839
32.05,101921,116679,0.022018,-0.038031,1.034841
32.10,102067,117144,0.020016,-0.036029,1.032839
32.15,102290,117666,0.031025,-0.041033,1.037843
32.20,102435,118017,0.041033,-0.038031,1.039845
32.25,102490,118145,0.040033,-0.038031,1.039845
32.30,102452,118023,0.030024,-0.03703,1.036842
32.35,102444,118076,0.028023,-0.035028,1.03384
32.40,102530,118234,0.028023,-0.036029,1.03384
32.45,102634,118498,0.035028,-0.038031,1.037843
32.50,102718,118772,0.038031,-0.038031,1.035842
32.55,102782,119086,0.035028,-0.03703,1.038844
32.60,103038,119837,0.028023,-0.034028,1.035842
32.65,103363,120505,0.031025,-0.03703,1.044849
32.70,103444,120661,0.031025,-0.036029,1.03384
32.75,103441,120761,0.026021,-0.036029,1.037843
32.80,103587,121151,0.031025,-0.036029,1.031838
32.85,103649,121357,0.030024,-0.033027,1.032839
32.90,103776,121726,0.031025,-0.031025,1.037843
32.95,103832,121847,0.031025,-0.033027,1.038844
33.00,103872,121980,0.031025,-0.035028,1.038844
33.05,103925,122090,0.034028,-0.03703,1.038844
33.10,103960,122195,0.035028,-0.03703,1.03384
33.15,104002,122263,0.030024,-0.035028,1.030838
33.20,103588,119154,0.031025,-0.038031,1.029837
33.25,102274,117014,0.032026,-0.038031,1.038844
33.30,101931,116757,0.030024,-0.038031,1.037843
33.35,101992,117149,0.031025,-0.03703,1.030838
33.40,102191,117674,0.034028,-0.038031,1.031838
33.45,102393,118136,0.030024,-0.039032,1.034841
33.50,102544,118255,0.030024,-0.036029,1.039845
33.55,102499,118046,0.030024,-0.041033,1.035842
33.60,102421,117975,0.027022,-0.03703,1.038844
33.65,102490,118381,0.035028,-0.039032,1.034841
33.70,102738,118843,0.032026,-0.035028,1.038844
33.75,102723,118524,0.035028,-0.033027,1.035842
33.80,102522,118137,0.035028,-0.031025,1.029837
33.85,102693,119163,0.029024,-0.041033,1.03384
33.90,102999,119767,0.030024,-0.036029,1.037843
33.95,103177,120038,0.032026,-0.035028,1.037843
34.00,103223,120058,0.031025,-0.041033,1.038844
34.05,103213,120176,0.034028,-0.036029,1.029837
34.10,103385,120654,0.031025,-0.035028,1.035842
34.15,103478,120911,0.033027,-0.039032,1.036842
34.20,103651,121391,0.028023,-0.03703,1.035842
34.25,103726,121523,0.027022,-0.034028,1.03384
34.30,103779,121655,0.028023,-0.03703,1.035842
34.35,103809,121771,0.030024,-0.036029,1.039845
34.40,103834,121453,0.031025,-0.03703,1.035842
34.45,101999,116514,0.030024,-0.034028,1.035842
34.50,101732,116260,0.029024,-0.033027,1.031838
34.55,101767,116516,0.035028,-0.036029,1.029837
34.60,101884,116770,0.034028,-0.03703,1.037843
34.65,102052,117143,0.031025,-0.036029,1.034841
34.70,102032,117110,0.032026,-0.036029,1.031838
34.75,102186,117531,0.033027,-0.039032,1.041847
34.80,102276,117781,0.032026,-0.035028,1.036842
34.85,102393,118109,0.034028,-0.035028,1.03384
34.90,102592,118752,0.034028,-0.038031,1.037843
34.95,102723,118934,0.031025,-0.03703,1.036842
35.00,102784,119128,0.029024,-0.036029,1.032839
35.05,102852,119346,0.028023,-0.03703,1.03384
35.10,103099,119853,0.028023,-0.041033,1.037843
35.15,103182,119977,0.029024,-0.038031,1.042847
35.20,103239,120122,0.031025,-0.038031,1.038844
35.25,103306,120327,0.029024,-0.03703,1.035842
35.30,103394,120614,0.029024,-0.034028,1.037843
35.35,103501,120822,0.036029,-0.03703,1.036842
35.40,103669,121265,0.035028,-0.036029,1.036842
35.45,103754,121447,0.031025,-0.034028,1.030838
35.50,102132,116523,0.032026,-0.039032,1.031838
35.55,101724,116011,0.031025,-0.03703,1.034841
35.60,101792,116399,0.033027,-0.040033,1.036842
35.65,101966,116754,0.033027,-0.036029,1.032839
35.70,101943,116599,0.032026,-0.039032,1.028836
35.75,101872,116548,0.031025,-0.038031,1.032839
35.80,101962,116866,0.039032,-0.040033,1.035842
35.85,102185,117334,0.031025,-0.036029,1.031838
35.90,101913,116695,0.034028,-0.042034,1.03384
35.95,102092,117563,0.029024,-0.03703,1.028836
36.00,102355,118137,0.031025,-0.038031,1.032839
36.05,102482,118221,0.034028,-0.038031,1.041847
36.10,102364,118006,0.036029,-0.036029,1.040846
36.15,102389,118191,0.031025,-0.040033,1.032839
36.20,102602,118754,0.030024,-0.040033,1.035842
36.25,102683,119001,0.031025,-0.036029,1.043848
36.30,102780,119282,0.032026,-0.03703,1.032839
36.35,101687,115331,0.031025,-0.038031,1.034841
36.40,101035,114156,0.031025,-0.03703,1.034841
36.45,100773,113776,0.031025,-0.035028,1.030838
36.50,100651,113682,0.033027,-0.038031,1.032839
36.55,100681,113939,0.029024,-0.035028,1.032839
36.60,100766,114065,0.023019,-0.032026,1.030838
36.65,100632,113679,0.030024,-0.035028,1.036842
36.70,100592,113950,0.03703,-0.040033,1.041847
36.75,100649,113711,0.029024,-0.036029,1.030838
36.80,100552,113876,0.03703,-0.035028,1.040846
36.85,100720,114483,0.036029,-0.03703,1.035842
36.90,101094,115007,0.027022,-0.034028,1.03384
36.95,101211,115237,0.031025,-0.038031,1.036842
37.00,101428,115797,0.029024,-0.038031,1.036842
37.05,101689,116278,0.030024,-0.036029,1.036842
37.10,101780,116579,0.034028,-0.036029,1.036842
37.15,101873,116097,0.03703,-0.034028,1.03384
37.20,100265,112261,0.030024,-0.038031,1.03384
37.25,99914,111917,0.032026,-0.03703,1.037843
37.30,99954,112108,0.033027,-0.03703,1.038844
37.35,100094,112549,0.03703,-0.034028,1.036842
37.40,100289,112924,0.030024,-0.034028,1.034841
37.45,100484,113217,0.038031,-0.043035,1.03384
37.50,100534,113375,0.032026,-0.03703,1.029837
37.55,100662,113919,0.032026,-0.03703,1.03384
37.60,100847,114355,0.034028,-0.034028,1.031838
37.65,100891,114605,0.033027,-0.038031,1.035842
37.70,100751,113496,0.033027,-0.040033,1.036842
37.75,100167,112184,0.034028,-0.035028,1.035842
37.80,99762,111638,0.033027,-0.038031,1.035842
37.85,99791,111733,0.038031,-0.036029,1.036842
37.90,99847,112021,0.033027,-0.035028,1.040846
37.95,99991,112424,0.031025,-0.038031,1.037843
38.00,100123,112643,0.031025,-0.036029,1.034841
38.05,100249,112942,0.033027,-0.039032,1.039845
38.10,100539,113750,0.031025,-0.036029,1.034841
38.15,100656,114059,0.032026,-0.038031,1.031838
38.20,100917,114587,0.032026,-0.040033,1.040846
38.25,100987,114841,0.035028,-0.041033,1.035842
38.30,101059,115014,0.033027,-0.03703,1.03384
38.35,101211,115416,0.032026,-0.03703,1.038844
38.40,101280,115462,0.029024,-0.038031,1.035842
38.45,101112,114527,0.033027,-0.035028,1.03384
38.50,100553,113528,0.030024,-0.035028,1.037843
38.55,100526,113582,0.034028,-0.036029,1.036842
38.60,100579,113743,0.033027,-0.040033,1.037843
38.65,100745,114107,0.034028,-0.034028,1.032839
38.70,100860,114618,0.031025,-0.040033,1.037843
38.75,100938,114786,0.036029,-0.03703,1.038844
38.80,101113,115175,0.02402,-0.03703,1.032839
38.85,101224,115536,0.028023,-0.040033,1.038844
38.90,101348,115843,0.031025,-0.040033,1.035842
38.95,101473,116176,0.032026,-0.039032,1.032839
39.00,101556,116454,0.029024,-0.036029,1.036842
39.05,101310,115442,0.029024,-0.040033,1.034841
39.10,101146,115439,0.035028,-0.036029,1.035842
39.15,101172,115490,0.034028,-0.036029,1.039845
39.20,101278,115749,0.036029,-0.03703,1.032839
39.25,101337,115912,0.030024,-0.039032,1.035842
39.30,101367,116046,0.032026,-0.036029,1.037843
39.35,101415,116340,0.033027,-0.039032,1.032839
39.40,101568,116695,0.031025,-0.034028,1.037843
39.45,101608,116784,0.034028,-0.03703,1.041847
39.50,101659,116992,0.029024,-0.036029,1.037843
39.55,101763,117279,0.031025,-0.03703,1.036842
39.60,101862,117523,0.034028,-0.039032,1.032839
39.65,101906,117307,0.033027,-0.034028,1.036842
39.70,101674,116905,0.032026,-0.036029,1.032839
39.75,101715,117137,0.030024,-0.036029,1.036842
39.80,101734,117281,0.030024,-0.036029,1.038844
39.85,101822,117528,0.032026,-0.033027,1.036842
39.90,101864,117557,0.033027,-0.035028,1.03384
39.95,101854,117652,0.034028,-0.036029,1.037843
40.00,101890,117758,0.031025,-0.03703,1.039845
40.05,101927,117864,0.033027,-0.041033,1.03384
40.10,102046,118093,0.031025,-0.036029,1.035842
40.15,102035,118140,0.032026,-0.040033,1.034841
40.20,102072,118265,0.032026,-0.038031,1.035842
40.25,102110,118394,0.029024,-0.035028,1.036842
40.30,102134,118467,0.031025,-0.038031,1.030838
40.35,102164,118566,0.032026,-0.039032,1.037843
40.40,102194,118673,0.032026,-0.039032,1.039845
40.45,102228,118754,0.029024,-0.035028,1.037843
40.50,102260,118859,0.031025,-0.035028,1.031838
40.55,102280,118935,0.030024,-0.03703,1.029837
40.60,102310,119035,0.031025,-0.041033,1.035842
40.65,102093,118396,0.032026,-0.036029,1.038844
40.70,102105,118471,0.030024,-0.036029,1.032839
40.75,102155,118644,0.032026,-0.036029,1.036842
40.80,102207,118785,0.035028,-0.03703,1.037843
40.85,102298,118931,0.029024,-0.036029,1.034841
40.90,102302,119004,0.034028,-0.034028,1.035842
40.95,102295,119043,0.033027,-0.032026,1.03384
41.00,102335,119180,0.031025,-0.03703,1.034841
41.05,102371,119266,0.028023,-0.038031,1.038844
41.10,102405,119345,0.032026,-0.03703,1.034841
41.15,102440,119461,0.033027,-0.039032,1.032839
41.20,102487,119650,0.029024,-0.039032,1.035842
41.25,102528,119739,0.033027,-0.034028,1.036842
41.30,102559,119822,0.029024,-0.030024,1.039845
41.35,102590,119908,0.030024,-0.039032,1.041847
41.40,102613,120007,0.031025,-0.038031,1.040846
41.45,102645,120069,0.028023,-0.039032,1.037843
41.50,102667,120146,0.032026,-0.03703,1.03384
41.55,102689,120242,0.032026,-0.03703,1.031838
41.60,102713,120229,0.033027,-0.035028,1.028836
41.65,102623,119776,0.032026,-0.03703,1.029837
41.70,102475,119564,0.030024,-0.035028,1.035842
41.75,102530,119900,0.031025,-0.036029,1.03384
41.80,102625,120099,0.035028,-0.036029,1.036842
41.85,102649,120134,0.032026,-0.039032,1.035842
41.90,102636,120122,0.032026,-0.036029,1.03384
41.95,102640,120140,0.034028,-0.036029,1.031838
42.00,102654,120232,0.032026,-0.036029,1.03384
42.05,102687,120311,0.032026,-0.036029,1.034841
42.10,102712,120405,0.032026,-0.036029,1.036842
42.15,102750,120467,0.028023,-0.03703,1.032839
42.20,102771,120566,0.033027,-0.03703,1.031838
42.25,102801,120615,0.031025,-0.036029,1.032839
42.30,102817,120660,0.032026,-0.036029,1.034841
42.35,102823,120734,0.030024,-0.036029,1.032839
42.40,102842,120793,0.028023,-0.038031,1.041847
42.45,102859,120892,0.030024,-0.038031,1.035842
42.50,102897,121009,0.028023,-0.036029,1.037843
42.55,102924,121038,0.029024,-0.03703,1.03384
42.60,102962,121100,0.033027,-0.038031,1.034841
42.65,102900,120724,0.031025,-0.039032,1.037843
42.70,102671,120390,0.028023,-0.03703,1.039845
42.75,102704,120581,0.029024,-0.038031,1.032839
42.80,102765,120707,0.030024,-0.039032,1.032839
42.85,102849,120884,0.035028,-0.040033,1.037843
42.90,102845,120861,0.033027,-0.042034,1.046851
42.95,102832,120815,0.036029,-0.036029,1.039845
43.00,102826,120848,0.034028,-0.034028,1.041847
43.05,102828,120907,0.034028,-0.036029,1.039845
43.10,102855,121014,0.031025,-0.040033,1.036842
43.15,102887,121058,0.034028,-0.03703,1.034841
43.20,102913,121152,0.030024,-0.035028,1.031838
43.25,102927,121215,0.030024,-0.036029,1.029837
43.30,102966,121285,0.029024,-0.035028,1.030838
43.35,102983,121337,0.031025,-0.036029,1.034841
43.40,102996,121394,0.032026,-0.035028,1.038844
43.45,103012,121430,0.029024,-0.035028,1.031838
43.50,103033,121495,0.032026,-0.03703,1.037843
43.55,103038,121535,0.034028,-0.038031,1.037843
43.60,103065,121603,0.029024,-0.03703,1.03384
43.65,103075,121654,0.032026,-0.036029,1.031838
43.70,103078,121628,0.028023,-0.038031,1.030838
43.75,102994,121141,0.031025,-0.040033,1.034841
43.80,102794,120729,0.035028,-0.035028,1.036842
43.85,102731,120782,0.028023,-0.03703,1.039845
43.90,102763,120962,0.033027,-0.036029,1.038844
43.95,102822,121157,0.030024,-0.036029,1.03384
44.00,102878,121249,0.035028,-0.03703,1.035842
44.05,102922,121289,0.032026,-0.036029,1.03384
44.10,102907,121245,0.029024,-0.036029,1.035842
44.15,102883,121198,0.033027,-0.035028,1.03384
44.20,102885,121255,0.036029,-0.036029,1.038844
44.25,102907,121359,0.033027,-0.03703,1.038844
44.30,102944,121418,0.030024,-0.034028,1.037843
44.35,102965,121516,0.030024,-0.033027,1.037843
44.40,102996,121569,0.031025,-0.035028,1.037843
44.45,103028,121705,0.032026,-0.034028,1.036842
44.50,103043,121724,0.035028,-0.036029,1.040846
44.55,103066,121775,0.032026,-0.03703,1.035842
44.60,103083,121809,0.031025,-0.039032,1.03384
44.65,103096,121896,0.032026,-0.036029,1.031838
44.70,103130,121974,0.029024,-0.034028,1.03384
44.75,103129,121875,0.034028,-0.039032,1.039845
44.80,102958,121234,0.032026,-0.035028,1.039845
44.85,102782,120948,0.034028,-0.038031,1.03384
44.90,102740,121001,0.034028,-0.039032,1.031838
44.95,102796,121207,0.034028,-0.038031,1.030838
45.00,102865,121357,0.029024,-0.03703,1.036842
45.05,102915,121499,0.031025,-0.038031,1.038844
45.10,102896,121346,0.031025,-0.034028,1.034841
45.15,102852,121408,0.030024,-0.038031,1.03384
45.20,102887,121508,0.029024,-0.038031,1.030838
45.25,102916,121543,0.028023,-0.036029,1.034841
45.30,102945,121633,0.028023,-0.036029,1.036842
45.35,102965,121699,0.033027,-0.039032,1.036842
45.40,102993,121740,0.034028,-0.039032,1.035842
45.45,102999,121815,0.030024,-0.040033,1.036842
45.50,103005,121852,0.030024,-0.036029,1.03384
45.55,103037,121929,0.032026,-0.03703,1.032839
45.60,103045,121930,0.031025,-0.036029,1.036842
45.65,103056,121990,0.030024,-0.041033,1.037843
45.70,103067,122034,0.032026,-0.039032,1.039845
45.75,103086,122112,0.035028,-0.03703,1.036842
45.80,103073,121757,0.034028,-0.039032,1.032839
45.85,102858,121146,0.032026,-0.042034,1.030838
45.90,102640,120994,0.034028,-0.035028,1.034841
45.95,102701,121183,0.032026,-0.036029,1.038844
46.00,102767,121343,0.033027,-0.03703,1.037843
46.05,102805,121404,0.033027,-0.038031,1.037843
46.10,102743,121295,0.032026,-0.03703,1.035842
46.15,102773,121464,0.033027,-0.03703,1.034841
46.20,102822,121529,0.033027,-0.039032,1.036842
46.25,102851,121618,0.032026,-0.038031,1.03384
46.30,102880,121666,0.031025,-0.041033,1.034841
46.35,102889,121756,0.031025,-0.036029,1.034841
46.40,102904,121793,0.03703,-0.039032,1.036842
46.45,102917,121846,0.033027,-0.034028,1.036842
46.50,102937,121895,0.032026,-0.034028,1.031838
46.55,102944,121925,0.034028,-0.035028,1.038844
46.60,102950,121981,0.032026,-0.03703,1.039845
46.65,102975,121830,0.028023,-0.03703,1.037843
46.70,102799,121182,0.029024,-0.036029,1.037843
46.75,102587,120804,0.031025,-0.033027,1.040846
46.80,102513,120825,0.032026,-0.036029,1.039845
46.85,102536,120974,0.032026,-0.035028,1.037843
46.90,102599,121160,0.032026,-0.03703,1.036842
46.95,102653,121248,0.030024,-0.039032,1.032839
47.00,102659,121224,0.029024,-0.038031,1.036842
47.05,102579,121087,0.038031,-0.038031,1.037843
47.10,102588,121140,0.032026,-0.036029,1.04585
47.15,102610,121216,0.032026,-0.036029,1.036842
47.20,102682,121424,0.034028,-0.034028,1.034841
47.25,102709,121493,0.034028,-0.036029,1.037843
47.30,102727,121548,0.035028,-0.036029,1.035842
47.35,102749,121643,0.033027,-0.034028,1.036842
47.40,102766,121653,0.033027,-0.03703,1.031838
47.45,102776,121684,0.035028,-0.038031,1.03384
47.50,102764,121752,0.030024,-0.036029,1.031838
47.55,102706,121205,0.029024,-0.034028,1.036842
47.60,102308,120449,0.032026,-0.036029,1.039845
47.65,102334,120754,0.031025,-0.039032,1.036842
47.70,102409,120881,0.033027,-0.038031,1.03384
47.75,102398,120833,0.035028,-0.036029,1.039845
47.80,102341,120816,0.031025,-0.034028,1.031838
47.85,102416,120951,0.029024,-0.03703,1.030838
47.90,102464,121052,0.029024,-0.036029,1.038844
47.95,102437,121039,0.033027,-0.036029,1.041847
48.00,102477,121186,0.034028,-0.03703,1.037843
48.05,102534,121305,0.031025,-0.036029,1.032839
48.10,102553,121377,0.031025,-0.035028,1.036842
48.15,102558,121391,0.031025,-0.036029,1.034841
48.20,102585,121451,0.031025,-0.039032,1.035842
48.25,102604,121504,0.034028,-0.040033,1.035842
48.30,102655,121679,0.033027,-0.038031,1.032839
48.35,102686,121766,0.03703,-0.035028,1.036842
48.40,102717,121826,0.033027,-0.035028,1.035842
48.45,102740,121906,0.028023,-0.035028,1.037843
48.50,102764,121968,0.033027,-0.039032,1.036842
48.55,102789,122048,0.033027,-0.039032,1.036842
48.60,102801,122112,0.031025,-0.036029,1.036842
48.65,102826,122169,0.035028,-0.03703,1.031838
48.70,102844,122107,0.034028,-0.03703,1.034841
48.75,102673,121173,0.034028,-0.039032,1.031838
48.80,102129,120220,0.029024,-0.032026,1.03384
48.85,102118,120373,0.031025,-0.035028,1.034841
48.90,102201,120627,0.030024,-0.03703,1.034841
48.95,102270,120786,0.033027,-0.040033,1.025833
49.00,102305,120792,0.034028,-0.039032,1.025833
49.05,102279,120629,0.032026,-0.035028,1.034841
49.10,102222,120533,0.028023,-0.03703,1.031838
49.15,102201,120541,0.029024,-0.03703,1.038844
49.20,102288,120839,0.031025,-0.038031,1.03384
49.25,102359,120956,0.030024,-0.039032,1.030838
49.30,102384,121019,0.034028,-0.038031,1.031838
49.35,102402,121080,0.033027,-0.03703,1.03384
49.40,102415,121089,0.032026,-0.035028,1.031838
49.45,102421,120712,0.035028,-0.033027,1.037843
49.50,102136,119893,0.033027,-0.036029,1.036842
49.55,101796,119506,0.029024,-0.035028,1.031838
49.60,101849,119699,0.033027,-0.03703,1.036842
49.65,101962,119946,0.032026,-0.036029,1.037843
49.70,101992,119901,0.027022,-0.032026,1.036842
49.75,101977,119846,0.027022,-0.036029,1.037843
49.80,101974,119957,0.035028,-0.035028,1.03384
49.85,102055,120080,0.035028,-0.03703,1.03384
49.90,102107,120187,0.032026,-0.034028,1.034841
49.95,102146,120314,0.026021,-0.036029,1.036842
50.00,102185,120387,0.028023,-0.038031,1.030838
50.05,102219,120464,0.030024,-0.036029,1.03384
50.10,102264,120562,0.031025,-0.035028,1.032839
50.15,102288,120320,0.031025,-0.038031,1.034841
50.20,102031,119410,0.028023,-0.038031,1.034841
50.25,101713,118765,0.032026,-0.035028,1.036842
50.30,101569,118662,0.032026,-0.035028,1.03384
50.35,101584,118803,0.032026,-0.036029,1.037843
50.40,101646,118953,0.032026,-0.035028,1.036842
50.45,101719,119069,0.034028,-0.03703,1.03384
50.50,101750,119076,0.032026,-0.034028,1.03384
50.55,101714,119036,0.036029,-0.03703,1.030838
50.60,101824,119284,0.034028,-0.033027,1.038844
50.65,101874,119395,0.038031,-0.034028,1.035842
50.70,101923,119508,0.030024,-0.036029,1.034841
50.75,101972,119620,0.031025,-0.038031,1.031838
50.80,102024,119733,0.031025,-0.039032,1.03384
50.85,102051,119779,0.030024,-0.03703,1.039845
50.90,102089,119680,0.032026,-0.03703,1.036842
50.95,101883,118766,0.03703,-0.038031,1.035842
51.00,101534,117987,0.030024,-0.036029,1.03384
51.05,101349,117772,0.031025,-0.036029,1.029837
51.10,101341,117870,0.031025,-0.038031,1.034841
51.15,101405,118018,0.034028,-0.039032,1.035842
51.20,101529,118175,0.026021,-0.03703,1.034841
51.25,101541,118146,0.031025,-0.03703,1.036842
51.30,101538,118140,0.034028,-0.035028,1.034841
51.35,101555,118206,0.033027,-0.038031,1.043848
51.40,101657,118508,0.033027,-0.034028,1.034841
51.45,101729,118637,0.033027,-0.039032,1.03384
51.50,101781,118772,0.034028,-0.040033,1.031838
51.55,101841,118898,0.034028,-0.038031,1.040846
51.60,101877,119009,0.036029,-0.039032,1.034841
51.65,101910,119055,0.03703,-0.034028,1.032839
51.70,101944,119155,0.033027,-0.036029,1.037843
51.75,101986,119144,0.033027,-0.039032,1.043848
51.80,101841,118327,0.029024,-0.039032,1.037843
51.85,101468,117335,0.031025,-0.036029,1.035842
51.90,101213,116960,0.027022,-0.038031,1.036842
51.95,101199,117085,0.033027,-0.034028,1.034841
52.00,101295,117241,0.033027,-0.036029,1.036842
52.05,101463,117492,0.034028,-0.036029,1.035842
52.10,101481,117484,0.034028,-0.036029,1.034841
52.15,101476,117486,0.031025,-0.030024,1.036842
52.20,101543,117728,0.034028,-0.038031,1.035842
52.25,101638,117905,0.031025,-0.038031,1.039845
52.30,101690,118050,0.032026,-0.036029,1.037843
52.35,101750,118215,0.030024,-0.038031,1.032839
52.40,101882,118527,0.033027,-0.039032,1.028836
52.45,101927,118643,0.031025,-0.035028,1.031838
52.50,101969,118736,0.030024,-0.03703,1.039845
52.55,102045,118998,0.029024,-0.036029,1.034841
52.60,102077,118748,0.026021,-0.032026,1.035842
52.65,101429,116760,0.030024,-0.036029,1.042847
52.70,101304,116803,0.03703,-0.036029,1.040846
52.75,101413,117040,0.036029,-0.035028,1.036842
52.80,101509,117189,0.030024,-0.038031,1.036842
52.85,101568,117253,0.030024,-0.035028,1.037843
52.90,101576,117281,0.028023,-0.036029,1.039845
52.95,101592,117295,0.033027,-0.039032,1.037843
53.00,101634,117455,0.035028,-0.040033,1.036842
53.05,101701,117615,0.036029,-0.035028,1.032839
53.10,102353,118749,0.033027,-0.03703,1.03384
53.15,102381,118878,0.03703,-0.039032,1.034841
53.20,102445,119043,0.035028,-0.035028,1.035842
53.25,102449,118678,0.03703,-0.035028,1.03384
53.30,102179,117557,0.030024,-0.03703,1.034841
53.35,101793,116764,0.031025,-0.039032,1.03384
53.40,101636,116654,0.033027,-0.03703,1.03384
53.45,101704,116871,0.031025,-0.036029,1.036842
53.50,101805,117143,0.030024,-0.035028,1.039845
53.55,101907,117332,0.032026,-0.03703,1.037843
53.60,101973,117399,0.027022,-0.035028,1.037843
53.65,101984,117373,0.032026,-0.035028,1.034841
53.70,101997,117483,0.034028,-0.038031,1.031838
53.75,102030,117599,0.033027,-0.03703,1.032839
53.80,102106,117791,0.032026,-0.041033,1.038844
53.85,102176,117974,0.035028,-0.038031,1.037843
53.90,102251,118193,0.035028,-0.036029,1.032839
53.95,102314,118361,0.032026,-0.038031,1.036842
54.00,102388,118544,0.030024,-0.03703,1.037843
54.05,102439,118695,0.030024,-0.039032,1.037843
54.10,102489,118834,0.033027,-0.03703,1.03384
54.15,102527,118928,0.034028,-0.035028,1.031838
54.20,102581,119127,0.029024,-0.036029,1.032839
54.25,102633,119244,0.030024,-0.036029,1.035842
54.30,102671,119464,0.033027,-0.035028,1.037843
54.35,102723,119045,0.032026,-0.039032,1.037843
54.40,102361,117867,0.035028,-0.036029,1.034841
54.45,102009,117174,0.033027,-0.036029,1.034841
54.50,101907,117184,0.033027,-0.03703,1.034841
54.55,101969,117362,0.032026,-0.036029,1.038844
54.60,102081,117595,0.027022,-0.034028,1.030838
54.65,102152,117801,0.033027,-0.035028,1.030838
54.70,102196,117864,0.031025,-0.033027,1.031838
54.75,102215,117883,0.033027,-0.035028,1.035842
54.80,102230,117930,0.032026,-0.036029,1.035842
54.85,102259,118063,0.034028,-0.040033,1.037843
54.90,102335,118292,0.033027,-0.038031,1.037843
54.95,102409,118496,0.031025,-0.040033,1.037843
55.00,102464,118702,0.033027,-0.036029,1.031838
55.05,102521,118856,0.032026,-0.03703,1.032839
55.10,102585,119059,0.035028,-0.03703,1.035842
55.15,102641,119154,0.029024,-0.033027,1.034841
55.20,102696,119323,0.029024,-0.033027,1.030838
55.25,102737,119482,0.027022,-0.035028,1.031838
55.30,102779,119658,0.030024,-0.039032,1.032839
55.35,102840,119780,0.032026,-0.041033,1.036842
55.40,102883,119937,0.036029,-0.03703,1.030838
55.45,102936,120135,0.031025,-0.035028,1.034841
55.50,102988,119947,0.034028,-0.038031,1.034841
55.55,102738,118838,0.032026,-0.038031,1.030838
55.60,102337,117852,0.034028,-0.038031,1.040846
55.65,102131,117617,0.031025,-0.038031,1.037843
55.70,102134,117782,0.028023,-0.032026,1.039845
55.75,102224,118050,0.034028,-0.033027,1.036842
55.80,102302,118210,0.032026,-0.03703,1.037843
55.85,102350,118320,0.032026,-0.038031,1.036842
55.90,102366,118265,0.031025,-0.03703,1.030838
55.95,102369,118365,0.028023,-0.040033,1.026834
56.00,102410,118447,0.035028,-0.036029,1.037843
56.05,102467,118617,0.033027,-0.036029,1.034841
56.10,102530,118799,0.030024,-0.038031,1.034841
56.15,102564,118900,0.031025,-0.038031,1.03384
56.20,102608,119014,0.032026,-0.035028,1.034841
56.25,102611,119189,0.033027,-0.033027,1.035842
56.30,102635,119278,0.029024,-0.03703,1.032839
56.35,102661,119368,0.033027,-0.036029,1.038844
56.40,102703,119477,0.031025,-0.03703,1.031838
56.45,102742,119657,0.032026,-0.036029,1.031838
56.50,102776,119767,0.030024,-0.039032,1.034841
56.55,102814,119930,0.035028,-0.035028,1.036842
56.60,102859,120082,0.035028,-0.03703,1.03384
56.65,102914,120247,0.032026,-0.034028,1.038844
56.70,102876,119480,0.029024,-0.034028,1.038844
56.75,102462,118318,0.028023,-0.030024,1.030838
56.80,102180,117853,0.02502,-0.035028,1.036842
56.85,102113,117931,0.026021,-0.03703,1.031838
56.90,102173,118159,0.031025,-0.039032,1.037843
56.95,102263,118407,0.032026,-0.036029,1.037843
57.00,102333,118583,0.031025,-0.038031,1.034841
57.05,102357,118561,0.036029,-0.036029,1.035842
57.10,102320,118497,0.033027,-0.034028,1.040846
57.15,102301,118553,0.035028,-0.034028,1.039845
57.20,102332,118751,0.030024,-0.035028,1.03384
57.25,102386,119004,0.032026,-0.038031,1.032839
57.30,102485,119278,0.030024,-0.034028,1.034841
57.35,102468,119362,0.030024,-0.035028,1.032839
57.40,102458,119328,0.035028,-0.036029,1.036842
57.45,102493,119173,0.034028,-0.036029,1.03384
57.50,102359,118949,0.034028,-0.03703,1.038844
57.55,81594,119108,0.026021,-0.02502,0.780634
57.60,101730,119120,0.030024,-0.038031,1.03384
57.65,101633,119026,0.032026,-0.033027,1.046851
57.70,101704,119346,0.032026,-0.032026,1.044849
57.75,101825,119693,0.032026,-0.036029,1.046851
57.80,101952,119996,0.035028,-0.03703,1.044849
57.85,102064,120194,0.035028,-0.036029,1.050854
57.90,102140,120359,0.035028,-0.032026,1.048852
57.95,102202,120472,0.036029,-0.03703,1.039845
58.00,102257,120632,0.033027,-0.038031,1.043848
58.05,102295,120782,0.035028,-0.036029,1.044849
58.10,102374,120954,0.036029,-0.032026,1.044849
58.15,102402,120495,0.032026,-0.031025,1.048852
58.20,101241,117759,0.036029,-0.031025,1.044849
58.25,101118,117697,0.031025,-0.035028,1.050854
58.30,101163,117924,0.034028,-0.035028,1.043848
58.35,101248,118103,0.032026,-0.036029,1.038844
58.40,101299,118267,0.033027,-0.033027,1.042847
58.45,101348,118293,0.033027,-0.034028,1.043848
58.50,101354,118337,0.034028,-0.033027,1.040846
58.55,101372,118443,0.035028,-0.035028,1.04585
58.60,101456,118656,0.032026,-0.034028,1.039845
58.65,101557,118992,0.032026,-0.032026,1.042847
58.70,101677,119255,0.031025,-0.033027,1.042847
58.75,101788,119551,0.032026,-0.033027,1.049853
58.80,101894,119756,0.035028,-0.03703,1.044849
58.85,101969,119942,0.03703,-0.036029,1.039845
58.90,102028,120091,0.032026,-0.034028,1.040846
58.95,102082,120216,0.034028,-0.030024,1.046851
59.00,102144,120408,0.032026,-0.035028,1.047851
59.05,102208,120277,0.03703,-0.031025,1.049853
59.10,101771,118383,0.034028,-0.036029,1.04585
59.15,101148,117563,0.032026,-0.034028,1.044849
59.20,100980,117521,0.032026,-0.038031,1.040846
59.25,101056,117776,0.034028,-0.036029,1.048852
59.30,101246,118171,0.034028,-0.036029,1.043848
59.35,101329,118325,0.034028,-0.029024,1.047851
59.40,101323,118283,0.035028,-0.033027,1.04585
59.45,101318,118235,0.030024,-0.038031,1.043848
59.50,101342,118376,0.033027,-0.030024,1.04585
59.55,101406,118581,0.032026,-0.036029,1.043848
59.60,101518,118914,0.032026,-0.032026,1.043848
59.65,101663,119259,0.031025,-0.039032,1.042847
59.70,101802,119584,0.030024,-0.032026,1.040846
59.75,101931,119835,0.036029,-0.035028,1.040846
59.80,102018,119975,0.032026,-0.036029,1.040846
59.85,102147,120310,0.032026,-0.032026,1.04585
59.90,102187,120496,0.036029,-0.035028,1.04585
59.95,102270,120698,0.031025,-0.03703,1.047851
60.00,102233,119650,0.033027,-0.031025,1.041847
60.05,101472,118058,0.030024,-0.032026,1.04585
60.10,101105,117661,0.035028,-0.035028,1.04585
60.15,101099,117865,0.036029,-0.042034,1.04585
60.20,101227,118225,0.034028,-0.035028,1.042847
60.25,101383,118564,0.032026,-0.034028,1.044849
60.30,101516,118772,0.030024,-0.036029,1.04585
60.35,101552,118716,0.028023,-0.034028,1.04585
60.40,101491,118519,0.035028,-0.038031,1.04585
60.45,101437,118506,0.034028,-0.036029,1.044849
60.50,101474,118699,0.034028,-0.036029,1.041847
60.55,101574,118999,0.030024,-0.036029,1.040846
60.60,101727,119309,0.029024,-0.033027,1.041847
60.65,101859,119519,0.029024,-0.030024,1.038844
60.70,101955,119752,0.029024,-0.032026,1.043848
60.75,102000,119871,0.036029,-0.036029,1.046851
60.80,102038,120011,0.036029,-0.035028,1.043848
60.85,102169,119864,0.033027,-0.031025,1.039845
60.90,101340,118240,0.035028,-0.035028,1.044849
60.95,101370,118355,0.034028,-0.034028,1.041847
61.00,101448,118601,0.031025,-0.036029,1.042847
61.05,101583,118870,0.028023,-0.034028,1.037843
61.10,101722,119206,0.031025,-0.035028,1.041847
61.15,101832,119424,0.036029,-0.035028,1.046851
61.20,101897,119607,0.03703,-0.040033,1.043848
61.25,101960,119843,0.032026,-0.032026,1.04585
61.30,102043,120077,0.032026,-0.033027,1.044849
61.35,102135,120167,0.030024,-0.032026,1.050854
61.40,101964,118793,0.033027,-0.039032,1.039845
61.45,101266,117649,0.031025,-0.034028,1.037843
61.50,101033,117441,0.029024,-0.034028,1.043848
61.55,101054,117604,0.032026,-0.033027,1.043848
61.60,101133,117820,0.034028,-0.035028,1.04585
61.65,101211,118051,0.038031,-0.038031,1.044849
61.70,101292,118276,0.032026,-0.035028,1.044849
61.75,101365,118302,0.030024,-0.03703,1.04585
61.80,101374,118341,0.028023,-0.038031,1.044849
61.85,101391,118478,0.035028,-0.036029,1.049853
61.90,101467,118719,0.035028,-0.032026,1.048852
61.95,101573,119085,0.034028,-0.032026,1.04585
62.00,101709,119378,0.035028,-0.040033,1.04585
62.05,101833,119688,0.035028,-0.036029,1.039845
62.10,101936,119904,0.032026,-0.040033,1.042847
62.15,102018,120065,0.034028,-0.031025,1.040846
62.20,102064,119954,0.036029,-0.035028,1.044849
62.25,101678,118194,0.035028,-0.036029,1.04585
62.30,101028,117395,0.033027,-0.03703,1.039845
62.35,100910,117346,0.033027,-0.032026,1.042847
62.40,100993,117678,0.029024,-0.035028,1.040846
62.45,101145,117942,0.030024,-0.036029,1.04585
62.50,101245,118192,0.036029,-0.031025,1.043848
62.55,101310,118292,0.040033,-0.039032,1.043848
62.60,101273,118168,0.03703,-0.035028,1.042847
62.65,101235,118197,0.039032,-0.036029,1.040846
62.70,101283,118360,0.038031,-0.036029,1.039845
62.75,101385,118614,0.030024,-0.03703,1.041847
62.80,101541,118977,0.022018,-0.031025,1.040846
62.85,101700,119317,0.027022,-0.029024,1.043848
62.90,101779,119496,0.033027,-0.034028,1.042847
62.95,101825,119687,0.043035,-0.040033,1.046851
63.00,101877,119901,0.040033,-0.040033,1.043848
63.05,101893,119543,0.038031,-0.034028,1.048852
63.10,101349,117817,0.034028,-0.033027,1.042847
63.15,100899,117267,0.027022,-0.036029,1.039845
63.20,100850,117339,0.031025,-0.03703,1.047851
63.25,100947,117564,0.036029,-0.035028,1.047851
63.30,101013,117683,0.042034,-0.035028,1.04585
63.35,101063,117981,0.040033,-0.030024,1.042847
63.40,101171,118118,0.042034,-0.033027,1.040846
63.45,101232,118175,0.036029,-0.033027,1.04585
63.50,101284,118285,0.027022,-0.036029,1.042847
63.55,101383,118452,0.035028,-0.034028,1.043848
63.60,101524,118879,0.038031,-0.038031,1.044849
63.65,101601,119171,0.040033,-0.039032,1.043848
63.70,101721,119525,0.028023,-0.027022,1.043848
63.75,101893,119918,0.02502,-0.034028,1.046851
63.80,102054,120094,0.035028,-0.03703,1.042847
63.85,102112,120272,0.043035,-0.039032,1.044849
63.90,102128,120392,0.042034,-0.035028,1.039845
63.95,100711,117771,0.035028,-0.033027,1.042847
64.00,100816,118031,0.035028,-0.032026,1.043848
64.05,100948,118316,0.033027,-0.038031,1.044849
64.10,101072,118463,0.032026,-0.033027,1.043848
64.15,101042,117641,0.034028,-0.029024,1.043848
64.20,100553,116538,0.033027,-0.034028,1.046851
64.25,100288,116217,0.030024,-0.035028,1.048852
64.30,100272,116266,0.029024,-0.032026,1.040846
64.35,100327,116356,0.033027,-0.030024,1.043848
64.40,100383,116506,0.034028,-0.038031,1.044849
64.45,100461,116687,0.033027,-0.03703,1.046851
64.50,100164,116119,0.032026,-0.034028,1.048852
64.55,100174,116150,0.034028,-0.034028,1.044849
64.60,100205,116378,0.035028,-0.035028,1.047851
64.65,100281,116535,0.030024,-0.035028,1.044849
64.70,100280,116564,0.032026,-0.035028,1.052855
64.75,100291,116660,0.032026,-0.032026,1.047851
64.80,100341,116713,0.027022,-0.033027,1.047851
64.85,100218,115828,0.03703,-0.035028,1.046851
64.90,99688,114380,0.033027,-0.039032,1.04585
64.95,99231,113516,0.033027,-0.038031,1.041847
65.00,98972,113160,0.034028,-0.035028,1.039845
65.05,99022,113117,0.038031,-0.034028,1.039845
65.10,101432,119489,0.035028,-0.03703,1.044849
65.15,101459,119621,0.038031,-0.033027,1.042847
65.20,101492,119640,0.034028,-0.030024,1.043848
65.25,101196,117574,0.031025,-0.035028,1.040846
65.30,100271,115757,0.035028,-0.032026,1.04585
65.35,99847,115103,0.034028,-0.034028,1.043848
65.40,99783,115184,0.035028,-0.030024,1.043848
65.45,99893,115427,0.032026,-0.032026,1.047851
65.50,100008,115650,0.032026,-0.031025,1.040846
65.55,100115,115837,0.028023,-0.030024,1.046851
65.60,100127,115813,0.032026,-0.033027,1.042847
65.65,100118,115732,0.036029,-0.030024,1.040846
65.70,100129,115803,0.035028,-0.035028,1.044849
65.75,100187,115931,0.030024,-0.035028,1.046851
65.80,100264,116126,0.032026,-0.033027,1.044849
65.85,100352,116369,0.034028,-0.032026,1.047851
65.90,100459,116661,0.033027,-0.031025,1.048852
65.95,100573,116908,0.035028,-0.035028,1.040846
66.00,100677,117231,0.036029,-0.03703,1.040846
66.05,100778,117422,0.030024,-0.033027,1.042847
66.10,100870,117664,0.033027,-0.034028,1.042847
66.15,100958,117860,0.035028,-0.035028,1.043848
66.20,101026,118018,0.036029,-0.033027,1.042847
66.25,101065,117795,0.032026,-0.030024,1.044849
66.30,100200,115193,0.033027,-0.035028,1.044849
66.35,99889,114758,0.031025,-0.039032,1.043848
66.40,99885,115029,0.034028,-0.038031,1.050854
66.45,100037,115390,0.032026,-0.035028,1.049853
66.50,100189,115791,0.035028,-0.036029,1.04585
66.55,100327,116007,0.034028,-0.036029,1.042847
66.60,101797,119851,0.031025,-0.035028,1.043848
66.65,101896,120071,0.030024,-0.03703,1.042847
66.70,101973,120206,0.034028,-0.034028,1.042847
66.75,102018,120307,0.036029,-0.031025,1.046851
66.80,102052,120029,0.035028,-0.030024,1.047851
66.85,101505,117679,0.036029,-0.034028,1.043848
66.90,100735,116235,0.029024,-0.034028,1.04585
66.95,100304,115788,0.030024,-0.038031,1.049853
67.00,100362,115928,0.035028,-0.034028,1.047851
67.05,100501,116231,0.032026,-0.03703,1.044849
67.10,100507,116152,0.036029,-0.032026,1.044849
67.15,100493,116149,0.039032,-0.029024,1.048852
67.20,100512,116326,0.035028,-0.035028,1.047851
67.25,100575,116460,0.035028,-0.036029,1.043848
67.30,100645,116709,0.034028,-0.039032,1.046851
67.35,100744,116968,0.030024,-0.036029,1.040846
67.40,100833,117164,0.034028,-0.035028,1.044849
67.45,100903,117364,0.038031,-0.040033,1.04585
67.50,100960,117545,0.036029,-0.03703,1.042847
67.55,101024,117770,0.039032,-0.036029,1.044849
67.60,101082,117539,0.033027,-0.03703,1.043848
67.65,100687,116141,0.032026,-0.032026,1.042847
67.70,100218,115194,0.036029,-0.033027,1.042847
67.75,100037,115204,0.032026,-0.035028,1.042847
67.80,100103,115413,0.035028,-0.034028,1.049853
67.85,100286,115858,0.032026,-0.033027,1.047851
67.90,100373,116025,0.034028,-0.03703,1.049853
67.95,100399,116180,0.03703,-0.036029,1.04585
68.00,100480,116395,0.035028,-0.036029,1.048852
68.05,100577,116678,0.035028,-0.035028,1.04585
68.10,100676,116879,0.031025,-0.031025,1.043848
68.15,100742,117104,0.028023,-0.034028,1.048852
68.20,100916,117616,0.035028,-0.035028,1.041847
68.25,100965,117188,0.034028,-0.033027,1.043848
68.30,100501,115785,0.035028,-0.031025,1.044849
68.35,100076,114926,0.030024,-0.031025,1.047851
68.40,99898,114800,0.032026,-0.031025,1.041847
68.45,99956,115072,0.035028,-0.033027,1.047851
68.50,100071,115329,0.031025,-0.035028,1.04585
68.55,100166,115611,0.032026,-0.03703,1.046851
68.60,100244,115659,0.029024,-0.03703,1.041847
68.65,100253,115687,0.031025,-0.036029,1.043848
68.70,100263,115773,0.033027,-0.03703,1.047851
68.75,100315,115925,0.039032,-0.034028,1.044849
68.80,100376,116180,0.035028,-0.035028,1.04585
68.85,100481,116390,0.033027,-0.036029,1.04585
68.90,100569,116619,0.032026,-0.036029,1.043848
68.95,100682,116982,0.032026,-0.028023,1.043848
69.00,100816,117333,0.034028,-0.038031,1.046851
69.05,100913,117501,0.035028,-0.038031,1.040846
69.10,100978,117702,0.033027,-0.03703,1.048852
69.15,101038,117874,0.035028,-0.031025,1.043848
69.20,101107,118044,0.035028,-0.032026,1.043848
69.25,101184,118284,0.033027,-0.031025,1.044849
69.30,101332,118749,0.032026,-0.032026,1.049853
69.35,101436,118942,0.030024,-0.031025,1.041847
69.40,101512,119170,0.033027,-0.032026,1.043848
69.45,101595,119364,0.032026,-0.031025,1.04585
69.50,101665,119576,0.034028,-0.031025,1.046851
69.55,101801,119902,0.034028,-0.035028,1.047851
69.60,101863,120065,0.03703,-0.036029,1.044849
69.65,101924,120222,0.03703,-0.033027,1.039845
69.70,101965,120388,0.035028,-0.031025,1.04585
69.75,102000,119762,0.034028,-0.036029,1.044849
69.80,101208,117088,0.033027,-0.035028,1.044849
69.85,100492,115931,0.031025,-0.038031,1.04585
69.90,100235,115763,0.031025,-0.036029,1.039845
69.95,100297,115921,0.034028,-0.035028,1.043848
70.00,100377,116139,0.032026,-0.033027,1.042847
70.05,100403,116063,0.038031,-0.03703,1.040846
70.10,100380,116058,0.035028,-0.03703,1.041847
70.15,100407,116194,0.035028,-0.034028,1.043848
70.20,100465,116379,0.036029,-0.034028,1.044849
70.25,100548,116593,0.03703,-0.035028,1.040846
70.30,100630,116850,0.034028,-0.035028,1.049853
70.35,100736,117066,0.034028,-0.032026,1.04585
70.40,100831,117313,0.034028,-0.036029,1.04585
70.45,100899,117431,0.032026,-0.034028,1.047851
70.50,100946,117621,0.032026,-0.031025,1.043848
70.55,101012,117574,0.033027,-0.033027,1.043848
70.60,100741,116231,0.033027,-0.036029,1.043848
70.65,100227,115121,0.033027,-0.038031,1.04585
70.70,99928,114670,0.032026,-0.032026,1.039845
70.75,99895,114749,0.036029,-0.031025,1.046851
70.80,99955,114898,0.03703,-0.033027,1.042847
70.85,100023,115218,0.033027,-0.036029,1.042847
70.90,100140,115422,0.032026,-0.034028,1.038844
70.95,100209,115464,0.031025,-0.034028,1.042847
71.00,100218,115542,0.033027,-0.035028,1.040846
71.05,100258,115686,0.035028,-0.033027,1.042847
71.10,100315,115889,0.033027,-0.036029,1.042847
71.15,100406,116143,0.033027,-0.034028,1.042847
71.20,100508,116436,0.036029,-0.030024,1.041847
71.25,100618,116707,0.036029,-0.033027,1.043848
71.30,100725,116955,0.034028,-0.033027,1.047851
71.35,100791,117123,0.031025,-0.034028,1.044849
71.40,100843,117337,0.033027,-0.034028,1.044849
71.45,100920,117538,0.03703,-0.034028,1.047851
71.50,100998,117496,0.034028,-0.036029,1.04585
71.55,100653,116003,0.032026,-0.035028,1.041847
71.60,100135,114907,0.034028,-0.034028,1.037843
71.65,99877,114596,0.030024,-0.03703,1.04585
71.70,99851,114745,0.035028,-0.03703,1.042847
71.75,99950,115004,0.039032,-0.036029,1.043848
71.80,100717,116864,0.036029,-0.038031,1.044849
71.85,100709,116137,0.041033,-0.03703,1.043848
71.90,100185,114645,0.039032,-0.039032,1.050854
71.95,99696,113802,0.032026,-0.034028,1.048852
72.00,99534,113653,0.035028,-0.036029,1.047851
72.05,99566,113820,0.036029,-0.038031,1.049853
72.10,99791,114397,0.033027,-0.034028,1.042847
72.15,99851,114457,0.032026,-0.035028,1.043848
72.20,99937,114758,0.033027,-0.036029,1.047851
72.25,100155,115298,0.035028,-0.03703,1.035842
72.30,100255,115589,0.038031,-0.031025,1.043848
72.35,100341,115778,0.036029,-0.034028,1.038844
72.40,100424,115991,0.035028,-0.034028,1.042847
72.45,100480,116172,0.032026,-0.034028,1.047851
72.50,100545,116356,0.035028,-0.033027,1.04585
72.55,100617,116637,0.032026,-0.033027,1.04585
72.60,100714,116812,0.032026,-0.032026,1.048852
72.65,100628,115734,0.031025,-0.035028,1.042847
72.70,100036,114293,0.036029,-0.034028,1.042847
72.75,99618,113663,0.031025,-0.033027,1.044849
72.80,99532,113653,0.027022,-0.036029,1.039845
72.85,99591,113861,0.034028,-0.036029,1.043848
72.90,99679,114104,0.03703,-0.039032,1.044849
72.95,99796,114382,0.033027,-0.036029,1.04585
73.00,99876,114435,0.031025,-0.036029,1.046851
73.05,99899,114550,0.031025,-0.036029,1.043848
73.10,99970,114754,0.030024,-0.035028,1.048852
73.15,100045,114970,0.033027,-0.034028,1.047851
73.20,100141,115251,0.033027,-0.030024,1.042847
73.25,100246,115474,0.033027,-0.035028,1.04585
73.30,100321,115683,0.03703,-0.033027,1.041847
73.35,100390,115843,0.036029,-0.036029,1.044849
73.40,100462,116058,0.034028,-0.033027,1.041847
73.45,100514,116197,0.032026,-0.03703,1.040846
73.50,100574,116395,0.035028,-0.038031,1.043848
73.55,100657,116604,0.034028,-0.038031,1.040846
73.60,100732,116459,0.033027,-0.034028,1.04585
73.65,100374,114998,0.034028,-0.035028,1.036842
73.70,99855,113952,0.035028,-0.03703,1.04585
73.75,99625,113760,0.031025,-0.032026,1.044849
73.80,99663,113983,0.034028,-0.03703,1.04585
73.85,99768,114316,0.039032,-0.035028,1.04585
73.90,99905,114613,0.03703,-0.036029,1.04585
73.95,100007,114685,0.03703,-0.030024,1.044849
74.00,100016,114714,0.036029,-0.030024,1.039845
74.05,100014,114763,0.034028,-0.034028,1.042847
74.10,100081,114980,0.032026,-0.031025,1.043848
74.15,100209,115234,0.031025,-0.031025,1.043848
74.20,100346,115508,0.034028,-0.033027,1.04585
74.25,100479,115810,0.031025,-0.033027,1.044849
74.30,100595,116052,0.029024,-0.030024,1.041847
74.35,100691,116332,0.036029,-0.040033,1.042847
74.40,100768,116508,0.035028,-0.040033,1.040846
74.45,100830,116697,0.035028,-0.03703,1.046851
74.50,100903,116958,0.035028,-0.033027,1.040846
74.55,100982,116939,0.039032,-0.03703,1.047851
74.60,100681,115483,0.03703,-0.035028,1.040846
74.65,100149,114327,0.030024,-0.038031,1.038844
74.70,99900,113987,0.029024,-0.034028,1.041847
74.75,99899,114082,0.042034,-0.034028,1.048852
74.80,99984,114198,0.038031,-0.035028,1.042847
74.85,100045,114482,0.035028,-0.033027,1.044849
74.90,100178,114810,0.033027,-0.032026,1.039845
74.95,100281,114983,0.028023,-0.034028,1.042847
75.00,100314,115073,0.029024,-0.035028,1.043848
75.05,100355,115254,0.034028,-0.036029,1.04585
75.10,100429,115493,0.028023,-0.033027,1.048852
75.15,100514,115773,0.028023,-0.033027,1.048852
75.20,100622,116100,0.031025,-0.032026,1.044849
75.25,100728,116404,0.034028,-0.032026,1.046851
75.30,100822,116698,0.031025,-0.038031,1.050854
75.35,100906,116918,0.033027,-0.03703,1.044849
75.40,100982,117097,0.031025,-0.033027,1.041847
75.45,101058,117316,0.032026,-0.03703,1.043848
75.50,101164,117623,0.03703,-0.038031,1.04585
75.55,101206,117075,0.034028,-0.036029,1.048852
75.60,100626,115378,0.035028,-0.034028,1.043848
75.65,100043,114425,0.032026,-0.033027,1.042847
75.70,100150,114631,0.034028,-0.032026,1.044849
75.75,100356,115157,0.040033,-0.039032,1.049853
75.80,100519,115485,0.033027,-0.043035,1.044849
75.85,100628,115696,0.023019,-0.029024,1.040846
75.90,100828,116197,0.03703,-0.034028,1.044849
75.95,101086,116849,0.035028,-0.036029,1.039845
76.00,101251,117309,0.027022,-0.031025,1.041847
76.05,101442,117873,0.032026,-0.033027,1.04585
76.10,101666,118554,0.038031,-0.03703,1.047851
76.15,101908,119047,0.03703,-0.036029,1.044849
76.20,102036,119350,0.032026,-0.035028,1.041847
76.25,102132,119591,0.033027,-0.031025,1.044849
76.30,102224,119888,0.032026,-0.036029,1.043848
76.35,102337,120225,0.041033,-0.039032,1.059861
76.40,102447,120509,0.040033,-0.03703,1.046851
76.45,102493,120741,0.033027,-0.033027,1.040846
76.50,102498,120888,0.032026,-0.035028,1.047851
76.55,102492,121044,0.033027,-0.031025,1.046851
76.60,102508,121212,0.031025,-0.036029,1.04585
76.65,102551,121377,0.032026,-0.038031,1.042847
76.70,102618,121503,0.032026,-0.034028,1.047851
76.75,102661,121592,0.03703,-0.033027,1.041847
76.80,102657,121581,0.033027,-0.040033,1.041847
76.85,102606,121594,0.034028,-0.03703,1.039845
76.90,102573,121635,0.038031,-0.028023,1.044849
76.95,102585,121729,0.034028,-0.03703,1.046851
77.00,102609,121250,0.030024,-0.038031,1.046851
77.05,101922,118206,0.033027,-0.03703,1.04585
77.10,101058,117234,0.035028,-0.029024,1.040846
77.15,101093,117607,0.038031,-0.032026,1.042847
77.20,101362,118531,0.041033,-0.038031,1.043848
77.25,101706,119355,0.035028,-0.038031,1.044849
77.30,101985,119928,0.031025,-0.027022,1.043848
77.35,102130,119905,0.031025,-0.029024,1.041847
77.40,102091,119627,0.035028,-0.038031,1.043848
77.45,102063,119652,0.035028,-0.030024,1.041847
77.50,102138,119899,0.032026,-0.032026,1.04585
77.55,102259,120114,0.033027,-0.03703,1.051855
77.60,102404,120455,0.035028,-0.032026,1.04585
77.65,102535,120739,0.031025,-0.035028,1.041847
77.70,102633,121028,0.032026,-0.036029,1.040846
77.75,102841,121500,0.041033,-0.036029,1.044849
77.80,102935,121677,0.033027,-0.040033,1.041847
77.85,102981,121420,0.029024,-0.033027,1.038844
77.90,102412,118780,0.026021,-0.030024,1.042847
77.95,101419,117535,0.027022,-0.036029,1.051855
78.00,101456,117795,0.032026,-0.03703,1.044849
78.05,101538,118061,0.029024,-0.032026,1.043848
78.10,101625,118416,0.035028,-0.038031,1.042847
78.15,101770,118760,0.038031,-0.039032,1.04585
78.20,101826,118828,0.034028,-0.036029,1.042847
78.25,101790,118768,0.034028,-0.034028,1.04585
78.30,101793,118939,0.034028,-0.030024,1.040846
78.35,102012,119582,0.028023,-0.034028,1.044849
78.40,102141,119908,0.032026,-0.029024,1.04585
78.45,102254,120260,0.040033,-0.035028,1.04585
78.50,102352,120532,0.03703,-0.041033,1.049853
78.55,102452,120817,0.031025,-0.038031,1.044849
78.60,102533,120850,0.033027,-0.033027,1.044849
78.65,102261,118779,0.035028,-0.035028,1.043848
78.70,101321,117276,0.033027,-0.03703,1.044849
78.75,101062,117134,0.029024,-0.03703,1.047851
78.80,101104,117473,0.030024,-0.033027,1.046851
78.85,101250,117892,0.033027,-0.029024,1.044849
78.90,101426,118363,0.03703,-0.035028,1.046851
78.95,101716,118876,0.035028,-0.033027,1.043848
79.00,101671,118831,0.029024,-0.033027,1.042847
79.05,101655,118967,0.03703,-0.035028,1.056859
79.10,102443,120911,0.032026,-0.036029,1.037843
79.15,102525,120836,0.03703,-0.039032,1.046851
79.20,102123,118524,0.038031,-0.034028,1.049853
79.25,101269,117284,0.035028,-0.035028,1.040846
79.30,101090,117197,0.033027,-0.03703,1.041847
79.35,101140,117478,0.036029,-0.036029,1.046851
79.40,101253,117732,0.038031,-0.038031,1.04585
79.45,101378,118117,0.035028,-0.044036,1.040846
79.50,101540,118413,0.034028,-0.034028,1.041847
79.55,101593,118398,0.031025,-0.030024,1.050854
79.60,101565,118393,0.032026,-0.039032,1.051855
79.65,102380,120470,0.029024,-0.03703,1.043848
79.70,102339,119341,0.035028,-0.034028,1.040846
79.75,101514,117405,0.036029,-0.036029,1.046851
79.80,101109,116924,0.033027,-0.034028,1.044849
79.85,101070,117099,0.034028,-0.03703,1.041847
79.90,101170,117474,0.034028,-0.036029,1.043848
79.95,101924,119433,0.030024,-0.035028,1.046851
80.00,102086,119805,0.030024,-0.036029,1.042847
80.05,102196,120056,0.030024,-0.035028,1.04585
80.10,102293,120257,0.032026,-0.036029,1.041847
80.15,102359,120457,0.036029,-0.036029,1.04585
80.20,102439,120654,0.035028,-0.034028,1.042847
80.25,102409,119401,0.03703,-0.034028,1.04585
80.30,101511,117428,0.036029,-0.036029,1.038844
80.35,101097,116954,0.034028,-0.031025,1.038844
80.40,101052,117195,0.031025,-0.034028,1.044849
80.45,101202,117541,0.03703,-0.034028,1.04585
80.50,101349,117892,0.039032,-0.034028,1.04585
80.55,101485,118161,0.033027,-0.035028,1.042847
80.60,101550,118255,0.032026,-0.033027,1.043848
80.65,101510,118171,0.033027,-0.032026,1.041847
80.70,101520,118273,0.036029,-0.038031,1.040846
80.75,101603,118536,0.039032,-0.03703,1.046851
80.80,101723,118887,0.034028,-0.035028,1.042847
80.85,101861,119297,0.032026,-0.034028,1.046851
80.90,102009,119640,0.031025,-0.035028,1.042847
80.95,102147,119964,0.035028,-0.032026,1.04585
81.00,102240,120193,0.034028,-0.033027,1.040846
81.05,102320,120417,0.036029,-0.035028,1.04585
81.10,102417,120606,0.035028,-0.034028,1.044849
81.15,102483,120136,0.036029,-0.03703,1.044849
81.20,101795,117789,0.038031,-0.039032,1.040846
81.25,101153,117107,0.036029,-0.036029,1.043848
81.30,101078,117171,0.032026,-0.036029,1.038844
81.35,101202,117591,0.033027,-0.033027,1.044849
81.40,101362,118017,0.03703,-0.032026,1.042847
81.45,101672,118551,0.032026,-0.035028,1.04585
81.50,101635,118477,0.031025,-0.031025,1.044849
81.55,101610,118496,0.033027,-0.035028,1.043848
81.60,101656,118727,0.033027,-0.036029,1.044849
81.65,101778,119129,0.036029,-0.034028,1.038844
81.70,101944,119518,0.03703,-0.033027,1.041847
81.75,102079,119901,0.035028,-0.032026,1.044849
81.80,102221,120176,0.031025,-0.033027,1.044849
81.85,102325,120412,0.036029,-0.033027,1.044849
81.90,102411,120626,0.033027,-0.031025,1.042847
81.95,102482,120869,0.033027,-0.033027,1.042847
82.00,102569,121058,0.034028,-0.033027,1.046851
82.05,102497,119691,0.036029,-0.035028,1.044849
82.10,101566,117605,0.040033,-0.036029,1.044849
82.15,101169,117302,0.035028,-0.030024,1.043848
82.20,101176,117677,0.032026,-0.036029,1.044849
82.25,101384,118239,0.035028,-0.03703,1.046851
82.30,101599,118800,0.035028,-0.036029,1.044849
82.35,101797,119135,0.033027,-0.035028,1.041847
82.40,101831,119043,0.034028,-0.034028,1.038844
82.45,101757,118941,0.034028,-0.036029,1.041847
82.50,101769,119105,0.038031,-0.035028,1.046851
82.55,101865,119341,0.036029,-0.032026,1.042847
82.60,101995,119626,0.032026,-0.03703,1.043848
82.65,102115,120042,0.033027,-0.035028,1.042847
82.70,102264,120432,0.03703,-0.036029,1.043848
82.75,102398,120805,0.038031,-0.034028,1.043848
82.80,102517,121043,0.031025,-0.039032,1.043848
82.85,102587,121244,0.035028,-0.03703,1.042847
82.90,102663,121437,0.036029,-0.031025,1.046851
82.95,102714,121555,0.034028,-0.036029,1.049853
83.00,102782,121781,0.032026,-0.036029,1.042847
83.05,102835,121907,0.031025,-0.03703,1.040846
83.10,102885,122064,0.033027,-0.032026,1.041847
83.15,102942,122208,0.034028,-0.031025,1.042847
83.20,102995,122331,0.034028,-0.033027,1.044849
83.25,103077,122535,0.031025,-0.03703,1.048852
83.30,103109,122626,0.031025,-0.033027,1.036842
83.35,103142,122720,0.036029,-0.035028,1.046851
83.40,103177,122778,0.033027,-0.034028,1.043848
83.45,103204,122867,0.036029,-0.031025,1.046851
83.50,103238,122930,0.036029,-0.034028,1.046851
83.55,103259,123000,0.034028,-0.036029,1.049853
83.60,103293,123085,0.038031,-0.034028,1.042847
83.65,103316,122800,0.03703,-0.031025,1.043848
83.70,102763,119862,0.03703,-0.038031,1.043848
83.75,101690,118433,0.033027,-0.036029,1.044849
83.80,101526,118600,0.035028,-0.033027,1.041847
83.85,101753,119457,0.03703,-0.032026,1.046851
83.90,102131,120434,0.036029,-0.029024,1.044849
83.95,102460,121062,0.03703,-0.033027,1.040846
84.00,102580,121062,0.029024,-0.036029,1.041847
84.05,102466,120574,0.034028,-0.038031,1.041847
84.10,102290,120328,0.036029,-0.034028,1.048852
84.15,102293,120478,0.035028,-0.034028,1.044849
84.20,102384,120784,0.033027,-0.036029,1.044849
84.25,102675,121473,0.032026,-0.033027,1.044849
84.30,102870,122003,0.03703,-0.031025,1.047851
84.35,102936,122154,0.033027,-0.033027,1.04585
84.40,102973,122212,0.029024,-0.032026,1.041847
84.45,103005,122371,0.034028,-0.033027,1.04585
84.50,103009,121611,0.030024,-0.03703,1.04585
84.55,102167,118830,0.031025,-0.032026,1.048852
84.60,101457,118113,0.031025,-0.039032,1.04585
84.65,101410,118294,0.032026,-0.03703,1.040846
84.70,101817,119410,0.038031,-0.032026,1.044849
84.75,101996,119857,0.038031,-0.039032,1.044849
84.80,102104,119896,0.036029,-0.040033,1.04585
84.85,102059,119727,0.035028,-0.036029,1.041847
84.90,102006,119686,0.03703,-0.034028,1.049853
84.95,102039,119874,0.036029,-0.036029,1.046851
85.00,102158,120200,0.036029,-0.034028,1.042847
85.05,102284,120503,0.030024,-0.040033,1.035842
85.10,102418,120874,0.033027,-0.038031,1.039845
85.15,102531,121185,0.033027,-0.034028,1.042847
85.20,102643,121366,0.03703,-0.035028,1.043848
85.25,102713,121600,0.038031,-0.036029,1.041847
85.30,102761,121777,0.033027,-0.036029,1.046851
85.35,102830,121818,0.036029,-0.034028,1.043848
85.40,102675,120034,0.034028,-0.035028,1.039845
85.45,101639,118087,0.030024,-0.034028,1.042847
85.50,101290,117806,0.034028,-0.034028,1.044849
85.55,101303,118093,0.031025,-0.033027,1.040846
85.60,101463,118492,0.036029,-0.031025,1.044849
85.65,101623,118854,0.040033,-0.036029,1.042847
85.70,101743,119079,0.033027,-0.036029,1.043848
85.75,101759,119015,0.034028,-0.03703,1.042847
85.80,101723,119056,0.033027,-0.036029,1.04585
85.85,101834,119296,0.036029,-0.03703,1.043848
85.90,102060,119836,0.038031,-0.03703,1.046851
85.95,102145,120116,0.035028,-0.035028,1.041847
86.00,102241,120264,0.033027,-0.033027,1.042847
86.05,101319,117681,0.032026,-0.032026,1.044849
86.10,101326,117779,0.033027,-0.033027,1.043848
86.15,101393,118018,0.032026,-0.032026,1.04585
86.20,101508,118294,0.035028,-0.03703,1.044849
86.25,101639,118639,0.035028,-0.035028,1.046851
86.30,101911,119296,0.033027,-0.033027,1.041847
86.35,102258,119888,0.036029,-0.033027,1.040846
86.40,102356,120089,0.031025,-0.032026,1.039845
86.45,102475,120325,0.032026,-0.036029,1.044849
86.50,102577,120546,0.034028,-0.034028,1.044849
86.55,102664,120814,0.038031,-0.033027,1.041847
86.60,102743,121006,0.035028,-0.029024,1.037843
86.65,102781,121210,0.031025,-0.033027,1.044849
86.70,102833,121478,0.031025,-0.034028,1.042847
86.75,102888,121659,0.034028,-0.035028,1.046851
86.80,102928,121811,0.030024,-0.035028,1.041847
86.85,103035,122097,0.029024,-0.033027,1.040846
86.90,103071,122245,0.035028,-0.026021,1.04585
86.95,103134,122381,0.036029,-0.029024,1.044849
87.00,103197,122508,0.03703,-0.033027,1.046851
87.05,101894,117922,0.035028,-0.032026,1.04585
87.10,101328,117345,0.031025,-0.032026,1.044849
87.15,101279,117496,0.031025,-0.036029,1.042847
87.20,101390,117795,0.032026,-0.038031,1.047851
87.25,101586,118195,0.033027,-0.035028,1.042847
87.30,101606,118089,0.029024,-0.034028,1.039845
87.35,101542,117960,0.034028,-0.040033,1.040846
87.40,101493,118131,0.033027,-0.032026,1.048852
87.45,101597,118298,0.032026,-0.034028,1.047851
87.50,101699,118419,0.030024,-0.035028,1.043848
87.55,101807,118605,0.032026,-0.034028,1.040846
87.60,101895,118834,0.036029,-0.035028,1.046851
87.65,101957,119011,0.036029,-0.033027,1.046851
87.70,102001,119165,0.033027,-0.035028,1.041847
87.75,102078,119420,0.026021,-0.033027,1.043848
87.80,102183,119370,0.02502,-0.03703,1.043848
87.85,101819,117539,0.03703,-0.033027,1.042847
87.90,101173,116343,0.03703,-0.036029,1.043848
87.95,100831,116013,0.033027,-0.035028,1.046851
88.00,100801,116203,0.030024,-0.032026,1.043848
88.05,100931,116456,0.028023,-0.034028,1.040846
88.10,101075,116746,0.034028,-0.032026,1.043848
88.15,101161,116894,0.03703,-0.03703,1.044849
88.20,101117,116822,0.039032,-0.03703,1.044849
88.25,101054,116831,0.034028,-0.035028,1.046851
88.30,101074,117039,0.029024,-0.033027,1.039845
88.35,101218,117397,0.028023,-0.035028,1.037843
88.40,101401,117785,0.031025,-0.033027,1.038844
88.45,101558,118181,0.034028,-0.033027,1.041847
88.50,101676,118436,0.03703,-0.038031,1.043848
88.55,101737,118695,0.036029,-0.038031,1.044849
88.60,101817,118926,0.033027,-0.035028,1.044849
88.65,101927,119169,0.029024,-0.029024,1.04585
88.70,102022,118841,0.031025,-0.032026,1.040846
88.75,101453,116843,0.033027,-0.033027,1.041847
88.80,100846,115898,0.032026,-0.039032,1.043848
88.85,100657,115851,0.035028,-0.035028,1.046851
88.90,100693,116127,0.03703,-0.03703,1.046851
88.95,100827,116482,0.036029,-0.030024,1.039845
89.00,100982,116927,0.028023,-0.034028,1.043848
89.05,101136,117061,0.02502,-0.034028,1.043848
89.10,101134,116997,0.034028,-0.034028,1.04585
89.15,101095,116963,0.038031,-0.036029,1.04585
89.20,101090,117208,0.039032,-0.040033,1.044849
89.25,101191,117565,0.033027,-0.03703,1.047851
89.30,101349,117939,0.027022,-0.035028,1.040846
89.35,101523,118313,0.028023,-0.034028,1.04585
89.40,101669,118567,0.029024,-0.036029,1.040846
89.45,101767,118767,0.03703,-0.032026,1.046851
89.50,101781,118944,0.038031,-0.033027,1.04585
89.55,101821,119157,0.030024,-0.035028,1.040846
89.60,101916,119360,0.030024,-0.031025,1.038844
89.65,101887,118043,0.028023,-0.031025,1.043848
89.70,101074,116245,0.03703,-0.036029,1.04585
89.75,100607,115565,0.040033,-0.038031,1.047851
89.80,100476,115537,0.033027,-0.033027,1.042847
89.85,100508,115694,0.027022,-0.034028,1.044849
89.90,100591,115900,0.028023,-0.031025,1.041847
89.95,100713,116169,0.032026,-0.032026,1.040846
90.00,100770,116230,0.036029,-0.034028,1.043848
90.05,100739,116277,0.031025,-0.035028,1.049853
90.10,100746,116381,0.030024,-0.03703,1.047851
90.15,100942,116878,0.034028,-0.041033,1.04585
90.20,101077,117216,0.033027,-0.038031,1.043848
90.25,101212,117610,0.033027,-0.035028,1.04585
90.30,101349,117930,0.03703,-0.035028,1.046851
90.35,101468,118203,0.035028,-0.038031,1.048852
90.40,101699,118807,0.029024,-0.032026,1.046851
90.45,101803,119066,0.034028,-0.036029,1.043848
90.50,101895,119302,0.036029,-0.036029,1.041847
90.55,101989,119546,0.033027,-0.033027,1.043848
90.60,102073,119734,0.027022,-0.036029,1.040846
90.65,102161,120030,0.029024,-0.03703,1.042847
90.70,102265,120202,0.033027,-0.036029,1.044849
90.75,102365,120422,0.034028,-0.03703,1.040846
90.80,102433,120648,0.033027,-0.038031,1.044849
90.85,102542,120991,0.032026,-0.031025,1.049853
90.90,102666,121366,0.030024,-0.038031,1.044849
90.95,102780,121700,0.036029,-0.031025,1.04585
91.00,101716,117383,0.036029,-0.033027,1.039845
91.05,100834,116558,0.028023,-0.036029,1.042847
91.10,100947,116986,0.030024,-0.032026,1.04585
91.15,101241,117546,0.035028,-0.032026,1.039845
91.20,101227,117415,0.030024,-0.035028,1.044849
91.25,101116,117369,0.032026,-0.036029,1.046851
91.30,101192,117555,0.032026,-0.033027,1.046851
91.35,101295,117903,0.033027,-0.033027,1.041847
91.40,101436,118267,0.034028,-0.033027,1.042847
91.45,101589,118670,0.034028,-0.034028,1.039845
91.50,101725,118953,0.03703,-0.036029,1.042847
91.55,101828,119206,0.032026,-0.032026,1.046851
91.60,101913,119427,0.033027,-0.038031,1.04585
91.65,101973,119626,0.03703,-0.036029,1.042847
91.70,102060,119873,0.03703,-0.036029,1.043848
91.75,102028,118517,0.033027,-0.031025,1.042847
91.80,101110,116552,0.033027,-0.032026,1.039845
91.85,100675,115959,0.034028,-0.034028,1.046851
91.90,100602,116059,0.033027,-0.030024,1.039845
91.95,100706,116315,0.032026,-0.034028,1.049853
92.00,100785,116528,0.039032,-0.034028,1.044849
92.05,100919,116964,0.039032,-0.035028,1.04585
92.10,101035,117135,0.035028,-0.034028,1.038844
92.15,101081,117152,0.038031,-0.035028,1.041847
92.20,101092,117263,0.034028,-0.038031,1.046851
92.25,101301,117972,0.033027,-0.033027,1.040846
92.30,101497,118438,0.031025,-0.031025,1.043848
92.35,101665,118880,0.032026,-0.028023,1.037843
92.40,101841,119268,0.036029,-0.033027,1.044849
92.45,101976,119566,0.034028,-0.034028,1.042847
92.50,102101,119856,0.032026,-0.035028,1.049853
92.55,102196,120117,0.033027,-0.034028,1.046851
92.60,102291,120430,0.034028,-0.03703,1.044849
92.65,102337,119408,0.033027,-0.036029,1.043848
92.70,101396,117058,0.03703,-0.038031,1.044849
92.75,100885,116430,0.029024,-0.03703,1.040846
92.80,100908,116747,0.036029,-0.030024,1.048852
92.85,100975,116921,0.034028,-0.03703,1.048852
92.90,101156,117339,0.035028,-0.03703,1.04585
92.95,101156,117359,0.033027,-0.034028,1.044849
93.00,101188,117570,0.038031,-0.031025,1.044849
93.05,101292,117881,0.034028,-0.032026,1.041847
93.10,101432,118291,0.032026,-0.030024,1.043848
93.15,101614,118760,0.033027,-0.035028,1.043848
93.20,101783,119176,0.035028,-0.034028,1.046851
93.25,101950,119624,0.036029,-0.032026,1.041847
93.30,102083,119892,0.035028,-0.03703,1.044849
93.35,102158,120052,0.035028,-0.03703,1.049853
93.40,102203,120205,0.038031,-0.035028,1.04585
93.45,102259,120366,0.031025,-0.035028,1.049853
93.50,102259,119444,0.031025,-0.036029,1.046851
93.55,101404,117183,0.031025,-0.036029,1.049853
93.60,100865,116504,0.028023,-0.032026,1.04585
93.65,101409,115637,0.032026,-0.03703,1.049853
93.70,101586,115831,0.028023,-0.040033,1.043848
93.75,101795,116016,0.031025,-0.029024,1.041847
93.80,101993,115542,0.035028,-0.033027,1.044849
93.85,101873,115446,0.035028,-0.033027,1.044849
93.90,101906,115460,0.034028,-0.032026,1.044849
93.95,101934,115663,0.033027,-0.038031,1.041847
94.00,101988,115572,0.034028,-0.033027,1.043848
94.05,101734,115186,0.034028,-0.034028,1.046851
94.10,101383,114614,0.035028,-0.03703,1.043848
94.15,101082,114256,0.034028,-0.031025,1.038844
94.20,100675,113542,0.035028,-0.030024,1.041847
94.25,100043,112563,0.038031,-0.030024,1.042847
94.30,99512,112180,0.033027,-0.03703,1.042847
94.35,99139,111102,0.035028,-0.034028,1.043848
94.40,98053,108474,0.038031,-0.030024,1.043848
94.45,97221,107357,0.036029,-0.038031,1.043848
94.50,97377,108305,0.032026,-0.038031,1.046851
94.55,98290,109576,0.033027,-0.039032,1.042847
94.60,99260,110925,0.034028,-0.03703,1.046851
94.65,100101,111736,0.03703,-0.035028,1.04585
94.70,100385,112221,0.039032,-0.03703,1.041847
94.75,100657,113115,0.036029,-0.031025,1.049853
94.80,101044,113958,0.032026,-0.036029,1.042847
94.85,101381,114594,0.033027,-0.036029,1.047851
94.90,102125,116837,0.033027,-0.039032,1.048852
94.95,102634,118138,0.033027,-0.033027,1.052855
95.00,103157,119320,0.031025,-0.032026,1.043848
95.05,103879,121028,0.03703,-0.033027,1.041847
95.10,104048,121434,0.039032,-0.036029,1.041847
95.15,104164,121789,0.035028,-0.036029,1.039845
95.20,104209,122022,0.032026,-0.035028,1.040846
95.25,104264,122249,0.032026,-0.034028,1.039845
95.30,104306,122453,0.03703,-0.029024,1.039845
95.35,104278,122213,0.03703,-0.030024,1.037843
95.40,103821,121398,0.036029,-0.034028,1.04585
95.45,103786,121373,0.036029,-0.038031,1.047851
95.50,103795,121593,0.03703,-0.03703,1.047851
95.55,103911,121941,0.033027,-0.036029,1.04585
95.60,104024,122272,0.038031,-0.033027,1.041847
95.65,104111,122428,0.03703,-0.032026,1.038844
95.70,104152,122532,0.035028,-0.031025,1.039845
95.75,104195,122715,0.035028,-0.032026,1.042847
95.80,104258,122879,0.031025,-0.033027,1.042847
95.85,104294,123033,0.032026,-0.033027,1.043848
95.90,104329,123107,0.033027,-0.032026,1.044849
95.95,104368,123262,0.033027,-0.034028,1.036842
96.00,104399,123362,0.032026,-0.033027,1.044849
96.05,104406,123272,0.029024,-0.033027,1.046851
96.10,104122,121010,0.036029,-0.040033,1.04585
96.15,102727,119123,0.029024,-0.031025,1.038844
96.20,102881,119736,0.032026,-0.033027,1.046851
96.25,103106,120250,0.034028,-0.033027,1.049853
96.30,103273,120701,0.033027,-0.032026,1.049853
96.35,103494,121043,0.032026,-0.03703,1.04585
96.40,103460,121129,0.036029,-0.033027,1.044849
96.45,103525,121382,0.034028,-0.035028,1.043848
96.50,103667,121771,0.036029,-0.029024,1.044849
96.55,103820,122158,0.031025,-0.036029,1.044849
96.60,103929,122437,0.032026,-0.035028,1.044849
96.65,104018,122739,0.035028,-0.035028,1.042847
96.70,104154,123085,0.035028,-0.032026,1.041847
96.75,104208,123203,0.033027,-0.03703,1.043848
96.80,104216,123270,0.032026,-0.031025,1.042847
96.85,104243,123388,0.034028,-0.034028,1.043848
96.90,104282,123243,0.03703,-0.03703,1.042847
96.95,103891,120774,0.03703,-0.038031,1.044849
97.00,102862,119148,0.038031,-0.03703,1.040846
97.05,102642,119312,0.035028,-0.033027,1.043848
97.10,102843,120145,0.033027,-0.035028,1.043848
97.15,103129,120750,0.034028,-0.035028,1.04585
97.20,103315,121193,0.034028,-0.036029,1.042847
97.25,103450,121419,0.032026,-0.031025,1.039845
97.30,103418,121185,0.034028,-0.038031,1.038844
97.35,103346,121135,0.036029,-0.033027,1.042847
97.40,103379,121356,0.032026,-0.034028,1.044849
97.45,103481,121702,0.035028,-0.035028,1.04585
97.50,103625,122035,0.033027,-0.038031,1.047851
97.55,103753,122399,0.031025,-0.035028,1.04585
97.60,103876,122700,0.032026,-0.035028,1.044849
97.65,103975,122957,0.036029,-0.032026,1.047851
97.70,104055,123126,0.032026,-0.033027,1.044849
97.75,104095,123274,0.032026,-0.032026,1.039845
97.80,104139,123369,0.029024,-0.034028,1.044849
97.85,104153,123428,0.030024,-0.029024,1.043848
97.90,104163,123470,0.033027,-0.032026,1.04585
97.95,104186,123621,0.035028,-0.035028,1.047851
98.00,104226,123705,0.036029,-0.035028,1.04585
98.05,104274,123822,0.031025,-0.03703,1.047851
98.10,104312,123928,0.030024,-0.036029,1.044849
98.15,104332,123990,0.032026,-0.034028,1.043848
98.20,104385,124135,0.035028,-0.036029,1.047851
98.25,104398,124193,0.030024,-0.034028,1.04585
98.30,104412,124241,0.032026,-0.03703,1.041847
98.35,104450,124359,0.03703,-0.036029,1.040846
98.40,104475,124405,0.035028,-0.036029,1.040846
98.45,104503,124513,0.034028,-0.033027,1.039845
98.50,104529,124533,0.034028,-0.03703,1.041847
98.55,104444,123363,0.032026,-0.03703,1.04585
98.60,103437,120375,0.033027,-0.035028,1.043848
98.65,102766,119839,0.029024,-0.036029,1.048852
98.70,102856,120586,0.032026,-0.036029,1.043848
98.75,103236,121639,0.034028,-0.033027,1.044849
98.80,103552,122315,0.03703,-0.03703,1.044849
98.85,103730,122632,0.035028,-0.038031,1.046851
98.90,103755,122574,0.034028,-0.038031,1.040846
98.95,103670,122311,0.031025,-0.03703,1.041847
99.00,103614,122338,0.03703,-0.036029,1.044849
99.05,103678,122647,0.032026,-0.034028,1.04585
99.10,103806,122966,0.031025,-0.035028,1.04585
99.15,103922,123246,0.031025,-0.032026,1.047851
99.20,104009,123443,0.031025,-0.032026,1.043848
99.25,104063,123589,0.030024,-0.032026,1.044849
99.30,104112,123709,0.031025,-0.036029,1.046851
99.35,104144,123852,0.036029,-0.036029,1.04585
99.40,104184,123921,0.03703,-0.033027,1.042847
99.45,104218,124002,0.036029,-0.032026,1.044849
99.50,104232,124043,0.034028,-0.035028,1.035842
99.55,104234,123642,0.031025,-0.035028,1.042847
99.60,103611,120761,0.031025,-0.032026,1.046851
99.65,102634,119504,0.038031,-0.033027,1.046851
99.70,102525,119797,0.035028,-0.03703,1.044849
99.75,102750,120603,0.036029,-0.038031,1.042847
99.80,103037,121177,0.032026,-0.033027,1.041847
99.85,103199,121599,0.034028,-0.031025,1.044849
99.90,103324,121756,0.034028,-0.035028,1.046851
99.95,103594,122813,0.033027,-0.03703,1.048852
100.00,103645,122935,0.035028,-0.034028,1.043848
100.05,103689,123053,0.030024,-0.032026,1.044849
100.10,103086,120070,0.034028,-0.035028,1.041847
100.15,102250,118991,0.029024,-0.034028,1.044849
100.20,102120,119197,0.031025,-0.035028,1.041847
100.25,102288,119777,0.034028,-0.034028,1.048852
100.30,102515,120213,0.03703,-0.03703,1.048852
100.35,102685,120586,0.038031,-0.034028,1.049853
100.40,102778,120650,0.035028,-0.036029,1.042847
100.45,102650,120539,0.031025,-0.036029,1.046851
100.50,102741,120755,0.033027,-0.029024,1.04585
100.55,102853,121068,0.034028,-0.034028,1.042847
100.60,102984,121433,0.030024,-0.033027,1.041847
100.65,103106,121764,0.031025,-0.036029,1.041847
100.70,103224,122013,0.033027,-0.03703,1.044849
100.75,103309,122240,0.032026,-0.035028,1.04585
100.80,103381,122430,0.033027,-0.039032,1.047851
100.85,103425,122605,0.035028,-0.032026,1.042847
100.90,103489,122759,0.035028,-0.031025,1.042847
100.95,103529,122900,0.034028,-0.033027,1.043848
101.00,103582,123015,0.035028,-0.034028,1.043848
101.05,103628,123175,0.033027,-0.031025,1.043848
101.10,103677,123327,0.034028,-0.034028,1.043848
101.15,103724,123414,0.030024,-0.03703,1.043848
101.20,103780,123583,0.03703,-0.035028,1.041847
101.25,103814,123645,0.033027,-0.03703,1.044849
101.30,103855,123761,0.032026,-0.034028,1.041847
101.35,103890,123900,0.033027,-0.033027,1.042847
101.40,103922,123926,0.034028,-0.038031,1.044849
101.45,103949,124048,0.033027,-0.032026,1.041847
101.50,103991,124076,0.033027,-0.035028,1.043848
101.55,104014,124193,0.031025,-0.03703,1.047851
101.60,104038,124208,0.032026,-0.040033,1.04585
101.65,104036,124062,0.030024,-0.035028,1.044849
101.70,102327,119134,0.033027,-0.034028,1.040846
101.75,102034,119123,0.031025,-0.033027,1.046851
101.80,102177,119707,0.034028,-0.032026,1.047851
101.85,102417,120220,0.03703,-0.032026,1.047851
101.90,102548,120537,0.036029,-0.036029,1.046851
101.95,102860,121413,0.035028,-0.036029,1.044849
102.00,102941,121681,0.034028,-0.034028,1.04585
102.05,103009,121779,0.029024,-0.032026,1.043848
102.10,103072,121928,0.026021,-0.034028,1.044849
102.15,103138,121999,0.030024,-0.03703,1.047851
102.20,102855,119832,0.028023,-0.034028,1.046851
102.25,101831,118192,0.032026,-0.035028,1.039845
102.30,101561,118041,0.036029,-0.032026,1.038844
102.35,101644,118443,0.033027,-0.036029,1.046851
102.40,101816,118812,0.034028,-0.038031,1.046851
102.45,101964,119206,0.033027,-0.031025,1.046851
102.50,102103,119377,0.035028,-0.033027,1.049853
102.55,102091,119228,0.033027,-0.032026,1.042847
102.60,102032,119181,0.033027,-0.036029,1.04585
102.65,102054,119360,0.032026,-0.035028,1.040846
102.70,102171,119687,0.034028,-0.03703,1.04585
102.75,102318,120092,0.031025,-0.033027,1.041847
102.80,102467,120425,0.035028,-0.032026,1.040846
102.85,102584,120742,0.03703,-0.031025,1.044849
102.90,102713,120940,0.035028,-0.030024,1.046851
102.95,102769,121092,0.031025,-0.034028,1.043848
103.00,102928,120893,0.033027,-0.034028,1.048852
103.05,102204,118330,0.036029,-0.036029,1.041847
103.10,101475,117405,0.032026,-0.033027,1.046851
103.15,101306,117360,0.031025,-0.030024,1.044849
103.20,101360,117519,0.035028,-0.032026,1.046851
103.25,101422,117626,0.036029,-0.033027,1.042847
103.30,101497,117888,0.03703,-0.034028,1.044849
103.35,101616,118038,0.035028,-0.033027,1.046851
103.40,101620,118062,0.030024,-0.030024,1.040846
103.45,101630,118107,0.029024,-0.035028,1.042847
103.50,101698,118281,0.034028,-0.034028,1.042847
103.55,101805,118557,0.033027,-0.034028,1.04585
103.60,101945,118900,0.031025,-0.035028,1.042847
103.65,102089,119306,0.030024,-0.034028,1.042847
103.70,102234,119633,0.032026,-0.032026,1.040846
103.75,102352,119850,0.033027,-0.035028,1.040846
103.80,102451,120056,0.03703,-0.034028,1.044849
103.85,102521,120281,0.039032,-0.034028,1.044849
103.90,102579,120480,0.036029,-0.03703,1.044849
103.95,102688,120704,0.036029,-0.03703,1.046851
104.00,102757,120943,0.035028,-0.038031,1.046851
104.05,102859,121192,0.035028,-0.031025,1.04585
104.10,102950,121411,0.029024,-0.031025,1.042847
104.15,103054,121662,0.034028,-0.034028,1.044849
104.20,103148,121879,0.03703,-0.036029,1.039845
104.25,103200,122056,0.039032,-0.031025,1.043848
104.30,103275,122227,0.034028,-0.032026,1.041847
104.35,103343,122391,0.033027,-0.035028,1.04585
104.40,103391,122533,0.034028,-0.038031,1.046851
104.45,103440,122655,0.032026,-0.038031,1.044849
104.50,103483,122750,0.034028,-0.03703,1.041847
104.55,103522,122845,0.038031,-0.03703,1.044849
104.60,103552,123005,0.036029,-0.038031,1.048852
104.65,103592,123082,0.034028,-0.03703,1.042847
104.70,103621,123018,0.036029,-0.033027,1.042847
104.75,103228,119814,0.040033,-0.035028,1.042847
104.80,101471,117551,0.032026,-0.034028,1.039845
104.85,101541,117923,0.032026,-0.034028,1.040846
104.90,101694,118217,0.033027,-0.033027,1.043848
104.95,101762,118432,0.032026,-0.033027,1.043848
105.00,101847,118526,0.031025,-0.033027,1.049853
105.05,101805,118406,0.034028,-0.032026,1.049853
105.10,101850,118604,0.038031,-0.035028,1.044849
105.15,102119,119262,0.030024,-0.029024,1.040846
105.20,102243,119580,0.033027,-0.029024,1.036842
105.25,102349,119822,0.036029,-0.033027,1.035842
105.30,102459,120100,0.03703,-0.031025,1.047851
105.35,102556,120315,0.034028,-0.033027,1.046851
105.40,102627,120486,0.033027,-0.033027,1.040846
105.45,102690,120716,0.036029,-0.032026,1.043848
105.50,102786,120989,0.033027,-0.033027,1.046851
105.55,102870,120641,0.032026,-0.033027,1.049853
105.60,102158,117995,0.042034,-0.035028,1.04585
105.65,101405,117062,0.036029,-0.03703,1.043848
105.70,101290,117156,0.035028,-0.036029,1.041847
105.75,101406,117507,0.036029,-0.03703,1.044849
105.80,101557,117907,0.035028,-0.031025,1.048852
105.85,101702,118298,0.038031,-0.033027,1.041847
105.90,101828,118405,0.035028,-0.034028,1.042847
105.95,101805,118292,0.035028,-0.035028,1.044849
106.00,101776,118323,0.035028,-0.034028,1.049853
106.05,101830,118569,0.038031,-0.034028,1.047851
106.10,101973,118927,0.034028,-0.03703,1.042847
106.15,102133,119403,0.033027,-0.038031,1.042847
106.20,102443,120163,0.035028,-0.033027,1.042847
106.25,102567,120397,0.03703,-0.034028,1.043848
106.30,102659,120686,0.032026,-0.031025,1.047851
106.35,102820,121128,0.032026,-0.032026,1.044849
106.40,102910,121333,0.03703,-0.035028,1.046851
106.45,103000,121233,0.03703,-0.034028,1.04585
106.50,101439,117095,0.031025,-0.03703,1.044849
106.55,101238,116934,0.029024,-0.034028,1.043848
106.60,101302,117252,0.035028,-0.03703,1.042847
106.65,101391,117488,0.03703,-0.040033,1.04585
106.70,101467,117733,0.033027,-0.036029,1.04585
106.75,101604,118005,0.034028,-0.033027,1.044849
106.80,101662,118015,0.038031,-0.036029,1.042847
106.85,101643,118013,0.036029,-0.035028,1.044849
106.90,101788,118535,0.033027,-0.035028,1.044849
106.95,102238,119648,0.034028,-0.039032,1.047851
107.00,102411,120168,0.036029,-0.034028,1.048852
107.05,102516,120277,0.034028,-0.035028,1.041847
107.10,102571,120447,0.032026,-0.036029,1.041847
107.15,102648,120677,0.031025,-0.036029,1.044849
107.20,102728,120881,0.034028,-0.038031,1.04585
107.25,102654,119388,0.033027,-0.03703,1.050854
107.30,101622,117206,0.035028,-0.034028,1.047851
107.35,101174,116721,0.032026,-0.034028,1.042847
107.40,101134,116886,0.031025,-0.034028,1.046851
107.45,101235,117161,0.035028,-0.033027,1.040846
107.50,101312,117341,0.03703,-0.038031,1.04585
107.55,101411,117666,0.038031,-0.034028,1.051855
107.60,101490,117785,0.032026,-0.032026,1.044849
107.65,101499,117701,0.033027,-0.035028,1.043848
107.70,101619,118290,0.036029,-0.038031,1.042847
107.75,101787,118668,0.033027,-0.034028,1.039845
107.80,101940,118999,0.034028,-0.033027,1.039845
107.85,102087,119303,0.035028,-0.036029,1.041847
107.90,102188,119586,0.036029,-0.03703,1.041847
107.95,102266,119784,0.036029,-0.034028,1.044849
108.00,102348,119947,0.033027,-0.036029,1.041847
108.05,102407,120127,0.033027,-0.032026,1.042847
108.10,102485,120337,0.030024,-0.036029,1.043848
108.15,102573,120449,0.033027,-0.032026,1.041847
108.20,102323,118356,0.034028,-0.034028,1.043848
108.25,101386,116873,0.033027,-0.036029,1.040846
108.30,101112,116733,0.032026,-0.038031,1.042847
108.35,101167,117096,0.034028,-0.034028,1.044849
108.40,101334,117450,0.036029,-0.031025,1.047851
108.45,101448,117798,0.036029,-0.036029,1.050854
108.50,101603,118060,0.034028,-0.036029,1.043848
108.55,101616,117983,0.032026,-0.038031,1.043848
108.60,101691,118437,0.036029,-0.035028,1.046851
108.65,101866,118846,0.031025,-0.035028,1.048852
108.70,102033,119289,0.030024,-0.034028,1.040846
108.75,102175,119608,0.035028,-0.033027,1.044849
108.80,102304,119911,0.035028,-0.031025,1.04585
108.85,102402,120123,0.034028,-0.034028,1.041847
108.90,102539,120549,0.034028,-0.035028,1.043848
108.95,102635,120814,0.033027,-0.034028,1.048852
109.00,102712,120850,0.035028,-0.036029,1.041847
109.05,102324,118381,0.039032,-0.033027,1.041847
109.10,101353,116946,0.032026,-0.033027,1.040846
109.15,101098,116798,0.030024,-0.032026,1.044849
109.20,101143,117044,0.034028,-0.036029,1.042847
109.25,101246,117322,0.036029,-0.03703,1.04585
109.30,101534,117921,0.034028,-0.031025,1.044849
109.35,101523,118008,0.034028,-0.036029,1.043848
109.40,101597,118310,0.03703,-0.035028,1.043848
109.45,101729,118659,0.033027,-0.036029,1.041847
109.50,101898,119014,0.03703,-0.032026,1.039845
109.55,102056,119427,0.036029,-0.034028,1.037843
109.60,102181,119758,0.032026,-0.036029,1.041847
109.65,102301,120010,0.032026,-0.035028,1.043848
109.70,102386,120228,0.032026,-0.036029,1.04585
109.75,102476,120378,0.032026,-0.03703,1.043848
109.80,102541,120615,0.029024,-0.031025,1.047851
109.85,102611,120905,0.034028,-0.033027,1.044849
109.90,102718,121134,0.032026,-0.033027,1.046851
109.95,102670,119663,0.03703,-0.03703,1.044849
110.00,101625,117418,0.031025,-0.036029,1.041847
110.05,101172,116985,0.028023,-0.030024,1.040846
110.10,101176,117264,0.033027,-0.030024,1.047851
110.15,101315,117592,0.036029,-0.033027,1.049853
110.20,101412,117884,0.032026,-0.035028,1.052855
110.25,101547,118259,0.034028,-0.033027,1.047851
110.30,101642,118374,0.031025,-0.031025,1.037843
110.35,101640,118331,0.036029,-0.034028,1.040846
110.40,101651,118443,0.03703,-0.038031,1.044849
110.45,101738,118713,0.036029,-0.031025,1.04585
110.50,101854,119041,0.031025,-0.036029,1.042847
110.55,102020,119490,0.030024,-0.035028,1.046851
110.60,102184,119939,0.033027,-0.035028,1.04585
110.65,102482,120581,0.035028,-0.035028,1.04585
110.70,102589,120860,0.035028,-0.033027,1.048852
110.75,102676,121096,0.035028,-0.035028,1.047851
110.80,102750,121249,0.035028,-0.035028,1.044849
110.85,102811,121470,0.031025,-0.036029,1.042847
110.90,102895,121660,0.033027,-0.03703,1.047851
110.95,102970,121850,0.038031,-0.03703,1.042847
111.00,103044,122111,0.033027,-0.033027,1.046851
111.05,103125,122282,0.036029,-0.036029,1.046851
111.10,103198,122487,0.034028,-0.039032,1.04585
111.15,103254,122606,0.031025,-0.041033,1.043848
111.20,103368,122830,0.033027,-0.035028,1.046851
111.25,103386,122985,0.034028,-0.034028,1.040846
111.30,103478,123148,0.032026,-0.034028,1.044849
111.35,103516,123247,0.033027,-0.03703,1.041847
111.40,103551,123309,0.03703,-0.036029,1.043848
111.45,103587,123402,0.030024,-0.038031,1.048852
111.50,103590,123131,0.032026,-0.034028,1.047851
111.55,103053,120028,0.034028,-0.032026,1.040846
111.60,101828,118378,0.031025,-0.034028,1.044849
111.65,101637,118470,0.032026,-0.034028,1.040846
111.70,101853,119344,0.036029,-0.030024,1.048852
111.75,102201,120225,0.035028,-0.036029,1.044849
111.80,102476,120733,0.034028,-0.039032,1.042847
111.85,102603,120736,0.034028,-0.035028,1.041847
111.90,102512,120373,0.031025,-0.033027,1.043848
111.95,102370,120201,0.029024,-0.033027,1.049853
112.00,102397,120395,0.034028,-0.035028,1.049853
112.05,102875,121714,0.033027,-0.032026,1.04585
112.10,102999,121986,0.031025,-0.03703,1.044849
112.15,103086,122207,0.031025,-0.036029,1.044849
112.20,103165,122397,0.030024,-0.035028,1.044849
112.25,103219,122518,0.032026,-0.033027,1.044849
112.30,103274,122651,0.030024,-0.03703,1.044849
112.35,103297,122770,0.032026,-0.033027,1.040846
112.40,103353,122924,0.035028,-0.031025,1.040846
112.45,103314,121774,0.035028,-0.03703,1.042847
112.50,102254,118788,0.034028,-0.033027,1.042847
112.55,101577,118099,0.030024,-0.032026,1.044849
112.60,101551,118461,0.026021,-0.032026,1.038844
112.65,101744,118977,0.032026,-0.035028,1.040846
112.70,101931,119403,0.03703,-0.03703,1.042847
112.75,102173,119856,0.034028,-0.034028,1.037843
112.80,102178,119781,0.035028,-0.033027,1.037843
112.85,102147,119831,0.032026,-0.035028,1.046851
112.90,102193,120052,0.032026,-0.034028,1.041847
112.95,102324,120393,0.032026,-0.033027,1.042847
113.00,102481,120820,0.034028,-0.033027,1.04585
113.05,102629,121188,0.035028,-0.032026,1.044849
113.10,102863,121791,0.033027,-0.033027,1.044849
113.15,102959,122015,0.033027,-0.035028,1.04585
113.20,103025,122163,0.033027,-0.036029,1.043848
113.25,103074,122302,0.034028,-0.034028,1.040846
113.30,103131,122502,0.033027,-0.035028,1.040846
113.35,103193,122491,0.036029,-0.032026,1.039845
113.40,102858,120022,0.03703,-0.036029,1.043848
113.45,101759,118278,0.032026,-0.034028,1.040846
113.50,101489,118206,0.033027,-0.033027,1.040846
113.55,101590,118727,0.035028,-0.034028,1.041847
113.60,101947,119518,0.039032,-0.033027,1.04585
113.65,102085,119769,0.036029,-0.034028,1.042847
113.70,102098,119717,0.032026,-0.035028,1.048852
113.75,102071,119583,0.032026,-0.034028,1.042847
113.80,102063,119719,0.031025,-0.033027,1.043848
113.85,102145,120016,0.032026,-0.035028,1.047851
113.90,102426,120741,0.032026,-0.035028,1.047851
113.95,102558,121041,0.038031,-0.038031,1.04585
114.00,102659,121294,0.032026,-0.035028,1.044849
114.05,102742,121459,0.033027,-0.034028,1.043848
114.10,102800,121647,0.033027,-0.035028,1.043848
114.15,102835,121804,0.033027,-0.035028,1.048852
114.20,102848,121796,0.036029,-0.033027,1.041847
114.25,102538,119690,0.036029,-0.033027,1.042847
114.30,101518,117983,0.03703,-0.036029,1.048852
114.35,101242,117951,0.035028,-0.038031,1.048852
114.40,101311,118418,0.036029,-0.034028,1.04585
114.45,101634,119300,0.03703,-0.036029,1.04585
114.50,101763,119428,0.036029,-0.035028,1.046851
114.55,101648,119154,0.034028,-0.036029,1.046851
114.60,101633,119341,0.032026,-0.036029,1.04585
114.65,101716,119689,0.035028,-0.033027,1.044849
114.70,101872,120145,0.034028,-0.03703,1.043848
114.75,102020,120493,0.036029,-0.033027,1.048852
114.80,102112,120839,0.032026,-0.034028,1.039845
114.85,102201,121159,0.036029,-0.035028,1.044849
114.90,102259,121360,0.035028,-0.034028,1.040846
114.95,102266,121391,0.033027,-0.033027,1.039845
115.00,102238,121402,0.033027,-0.032026,1.044849
115.05,102185,121525,0.033027,-0.033027,1.040846
115.10,102172,121622,0.030024,-0.03703,1.046851
115.15,102181,121702,0.031025,-0.033027,1.043848
115.20,102206,121804,0.036029,-0.031025,1.040846
115.25,102230,121918,0.034028,-0.03703,1.043848
115.30,102217,122053,0.032026,-0.040033,1.042847
115.35,102241,122055,0.033027,-0.040033,1.04585
115.40,102253,122076,0.036029,-0.032026,1.044849
115.45,102221,121225,0.033027,-0.032026,1.044849
115.50,101231,117845,0.035028,-0.034028,1.043848
115.55,100396,116971,0.030024,-0.031025,1.043848
115.60,100348,117204,0.030024,-0.033027,1.039845
115.65,100525,117686,0.036029,-0.033027,1.040846
115.70,100721,118094,0.031025,-0.030024,1.043848
115.75,100887,118532,0.031025,-0.030024,1.040846
115.80,101014,118626,0.031025,-0.031025,1.037843
115.85,100874,118286,0.034028,-0.036029,1.043848
115.90,100907,118507,0.033027,-0.033027,1.046851
115.95,101220,119358,0.032026,-0.036029,1.04585
116.00,101323,119692,0.033027,-0.036029,1.046851
116.05,101419,119986,0.033027,-0.034028,1.046851
116.10,101540,120248,0.035028,-0.035028,1.04585
116.15,101612,119571,0.034028,-0.033027,1.051855
116.20,100311,116805,0.031025,-0.032026,1.040846
116.25,100331,117029,0.033027,-0.035028,1.040846
116.30,100538,117636,0.035028,-0.035028,1.035842
116.35,100836,118316,0.033027,-0.033027,1.039845
116.40,100825,118109,0.029024,-0.029024,1.04585
116.45,100751,118149,0.035028,-0.029024,1.041847
116.50,100764,118384,0.034028,-0.033027,1.038844
116.55,101067,119196,0.033027,-0.035028,1.043848
116.60,101181,119457,0.031025,-0.036029,1.04585
116.65,100575,116867,0.036029,-0.035028,1.043848
116.70,100080,116437,0.034028,-0.035028,1.041847
116.75,100077,116560,0.033027,-0.035028,1.044849
116.80,100193,116792,0.032026,-0.032026,1.043848
116.85,100262,116970,0.036029,-0.033027,1.044849
116.90,100386,117404,0.034028,-0.035028,1.040846
116.95,100592,117708,0.036029,-0.03703,1.046851
117.00,100701,117744,0.038031,-0.033027,1.044849
117.05,100714,117776,0.030024,-0.035028,1.04585
117.10,100764,117977,0.028023,-0.030024,1.043848
117.15,100859,118197,0.032026,-0.033027,1.046851
117.20,100981,118452,0.034028,-0.033027,1.043848
117.25,101106,118677,0.03703,-0.034028,1.049853
117.30,101239,118949,0.032026,-0.038031,1.047851
117.35,101230,118294,0.035028,-0.029024,1.039845
117.40,100757,117341,0.035028,-0.033027,1.04585
117.45,100538,117105,0.035028,-0.03703,1.047851
117.50,100565,117181,0.033027,-0.042034,1.046851
117.55,100578,117213,0.036029,-0.032026,1.044849
117.60,100543,117288,0.03703,-0.029024,1.044849
117.65,100551,117443,0.03703,-0.03703,1.043848
117.70,100600,117529,0.030024,-0.03703,1.044849
117.75,100568,117489,0.036029,-0.035028,1.04585
117.80,100529,117537,0.035028,-0.033027,1.046851
117.85,100532,117658,0.034028,-0.034028,1.044849
117.90,100574,117789,0.032026,-0.033027,1.046851
117.95,100641,117963,0.031025,-0.034028,1.04585
118.00,100691,118140,0.036029,-0.031025,1.04585
118.05,100763,118237,0.034028,-0.032026,1.04585
118.10,100612,117350,0.040033,-0.033027,1.043848
118.15,100225,116711,0.032026,-0.036029,1.044849
118.20,100123,116732,0.032026,-0.033027,1.043848
118.25,100159,116888,0.032026,-0.032026,1.042847
118.30,100199,117005,0.036029,-0.033027,1.039845
118.35,100254,117184,0.033027,-0.032026,1.04585
118.40,100329,117377,0.035028,-0.033027,1.04585
118.45,100387,117441,0.036029,-0.033027,1.044849
118.50,100404,117560,0.032026,-0.033027,1.043848
118.55,100442,117675,0.032026,-0.033027,1.043848
118.60,100514,117820,0.035028,-0.032026,1.043848
118.65,100596,118045,0.036029,-0.031025,1.041847
118.70,100661,118214,0.034028,-0.034028,1.037843
118.75,100725,118303,0.031025,-0.034028,1.040846
118.80,100689,117768,0.033027,-0.038031,1.046851
118.85,100346,117074,0.036029,-0.031025,1.039845
118.90,100235,117087,0.035028,-0.035028,1.040846
118.95,100267,117218,0.035028,-0.034028,1.044849
119.00,100310,117318,0.036029,-0.032026,1.046851
119.05,100344,117448,0.039032,-0.035028,1.042847
119.10,100436,117696,0.034028,-0.032026,1.037843
119.15,100493,117867,0.034028,-0.038031,1.040846
119.20,100542,118012,0.035028,-0.035028,1.04585
119.25,100598,118156,0.033027,-0.030024,1.046851
119.30,100627,118304,0.033027,-0.036029,1.042847
119.35,100651,118401,0.035028,-0.03703,1.046851
119.40,100685,118486,0.040033,-0.032026,1.043848
119.45,100721,118653,0.035028,-0.035028,1.043848
119.50,100757,118610,0.036029,-0.035028,1.041847
119.55,100583,117803,0.03703,-0.031025,1.044849
119.60,100321,117561,0.034028,-0.03703,1.042847
119.65,100324,117687,0.032026,-0.036029,1.041847
119.70,100388,117849,0.032026,-0.033027,1.047851
119.75,100417,117962,0.036029,-0.031025,1.04585
119.80,100446,118068,0.035028,-0.033027,1.037843
119.85,100501,118242,0.038031,-0.03703,1.043848
119.90,100502,118267,0.03703,-0.036029,1.044849
119.95,100534,118530,0.035028,-0.035028,1.04585
120.00,100621,118648,0.035028,-0.035028,1.048852
120.05,100675,118783,0.041033,-0.038031,1.037843
120.10,100701,118919,0.03703,-0.035028,1.041847
120.15,100742,118974,0.032026,-0.036029,1.042847
120.20,100764,119099,0.028023,-0.03703,1.044849
120.25,100794,119223,0.03703,-0.032026,1.038844
120.30,100804,118962,0.035028,-0.030024,1.040846
120.35,100547,118268,0.036029,-0.033027,1.039845
120.40,100412,118297,0.032026,-0.034028,1.044849
120.45,100487,118528,0.029024,-0.035028,1.046851
120.50,100552,118701,0.036029,-0.036029,1.047851
120.55,100589,118808,0.038031,-0.040033,1.046851
120.60,101542,121528,0.033027,-0.032026,1.044849
120.65,101587,121598,0.032026,-0.033027,1.040846
120.70,101644,121632,0.036029,-0.033027,1.039845
120.75,101424,120531,0.038031,-0.036029,1.040846
120.80,101034,119975,0.033027,-0.035028,1.037843
120.85,101099,120417,0.032026,-0.035028,1.044849
120.90,101173,120613,0.033027,-0.034028,1.046851
120.95,101226,120749,0.029024,-0.034028,1.04585
121.00,101236,120707,0.027022,-0.038031,1.047851
121.05,101230,120737,0.033027,-0.03703,1.041847
121.10,101252,120908,0.033027,-0.035028,1.046851
121.15,101303,120990,0.031025,-0.035028,1.047851
121.20,101351,121117,0.031025,-0.038031,1.044849
121.25,101395,121218,0.032026,-0.038031,1.042847
121.30,101418,121315,0.033027,-0.03703,1.04585
121.35,101448,121367,0.035028,-0.036029,1.042847
121.40,101480,121459,0.03703,-0.033027,1.044849
121.45,101506,121497,0.036029,-0.034028,1.04585
121.50,101516,121598,0.034028,-0.03703,1.043848
121.55,101530,121654,0.03703,-0.034028,1.04585
121.60,101557,121574,0.036029,-0.031025,1.041847
121.65,101137,120565,0.030024,-0.029024,1.039845
121.70,101144,120699,0.027022,-0.035028,1.041847
121.75,101207,120915,0.036029,-0.033027,1.04585
121.80,101267,121119,0.038031,-0.036029,1.039845
121.85,101337,121253,0.040033,-0.029024,1.043848
121.90,101367,121274,0.034028,-0.033027,1.04585
121.95,101366,121239,0.034028,-0.033027,1.044849
122.00,101343,121263,0.03703,-0.03703,1.042847
122.05,101379,121388,0.034028,-0.035028,1.043848
122.10,101416,121539,0.033027,-0.031025,1.042847
122.15,101465,121661,0.030024,-0.036029,1.043848
122.20,101502,121732,0.035028,-0.035028,1.042847
122.25,101542,121939,0.029024,-0.036029,1.050854
122.30,101579,121960,0.034028,-0.035028,1.046851
122.35,101617,122027,0.028023,-0.034028,1.047851
122.40,101637,122104,0.029024,-0.034028,1.041847
122.45,101657,122218,0.03703,-0.030024,1.043848
122.50,101483,121328,0.034028,-0.034028,1.039845
122.55,101243,121005,0.033027,-0.030024,1.041847
122.60,101222,121140,0.034028,-0.034028,1.041847
122.65,101295,121391,0.030024,-0.036029,1.040846
122.70,101451,121719,0.038031,-0.036029,1.037843
122.75,101465,121763,0.03703,-0.032026,1.038844
122.80,101447,121654,0.035028,-0.034028,1.041847
122.85,101401,121664,0.034028,-0.034028,1.04585
122.90,101410,121677,0.031025,-0.034028,1.043848
122.95,101433,121778,0.033027,-0.032026,1.040846
